time	SOL	GAS	TA	MH	BF	VL	VM	RF	GMAX	GMED
0	0.000587	0.000273	0.005365	0.000359	0.000277	0.000303	0.000332	0.000217	0.000198	0.000269
0.0005	0.000641	0.000299	0.005877	0.000392	0.000305	0.000331	0.000362	0.000237	0.000217	0.000295
0.001	0.000697	0.000325	0.006409	0.000426	0.000333	0.00036	0.000394	0.000258	0.000237	0.000321
0.0015	0.000753	0.000353	0.006956	0.000461	0.000363	0.00039	0.000425	0.000279	0.000257	0.000348
0.002	0.00081	0.00038	0.007514	0.000496	0.000394	0.00042	0.000457	0.0003	0.000278	0.000375
0.0025	0.000868	0.000408	0.008081	0.000531	0.000426	0.00045	0.000489	0.000322	0.000299	0.000402
0.003	0.000924	0.000435	0.008653	0.000566	0.000458	0.00048	0.00052	0.000343	0.00032	0.00043
0.0035	0.000981	0.000463	0.00923	0.000601	0.000491	0.00051	0.000551	0.000364	0.000342	0.000457
0.004	0.001037	0.00049	0.009809	0.000635	0.000525	0.00054	0.000581	0.000385	0.000364	0.000485
0.0045	0.001092	0.000518	0.010389	0.000669	0.000559	0.00057	0.000611	0.000406	0.000385	0.000512
0.005	0.001146	0.000545	0.010969	0.000703	0.000594	0.000599	0.00064	0.000426	0.000407	0.000539
0.0055	0.001199	0.000572	0.011548	0.000735	0.000629	0.000628	0.000669	0.000446	0.000429	0.000566
0.006	0.001251	0.000598	0.012126	0.000768	0.000665	0.000656	0.000696	0.000465	0.000451	0.000592
0.0065	0.001302	0.000624	0.012702	0.000799	0.000701	0.000684	0.000723	0.000485	0.000473	0.000619
0.007	0.001352	0.00065	0.013275	0.00083	0.000737	0.000712	0.000749	0.000503	0.000494	0.000644
0.0075	0.001401	0.000675	0.013846	0.00086	0.000774	0.000739	0.000775	0.000522	0.000516	0.00067
0.008	0.001448	0.0007	0.014413	0.000889	0.000811	0.000765	0.000799	0.00054	0.000538	0.000695
0.0085	0.001495	0.000724	0.014976	0.000918	0.000848	0.000791	0.000823	0.000557	0.000559	0.00072
0.009	0.001541	0.000748	0.015536	0.000946	0.000885	0.000817	0.000846	0.000575	0.000581	0.000745
0.0095	0.001585	0.000772	0.016091	0.000974	0.000922	0.000842	0.000869	0.000592	0.000602	0.000769
0.01	0.001629	0.000795	0.016643	0.001001	0.000959	0.000867	0.00089	0.000608	0.000623	0.000793
0.0105	0.001672	0.000818	0.01719	0.001027	0.000997	0.000891	0.000911	0.000624	0.000645	0.000816
0.011	0.001714	0.000841	0.017733	0.001053	0.001034	0.000915	0.000932	0.00064	0.000666	0.00084
0.0115	0.001755	0.000863	0.018271	0.001078	0.001071	0.000938	0.000952	0.000656	0.000686	0.000863
0.012	0.001796	0.000884	0.018805	0.001103	0.001109	0.000961	0.000971	0.000671	0.000707	0.000885
0.0125	0.001835	0.000906	0.019334	0.001127	0.001146	0.000984	0.00099	0.000686	0.000728	0.000908
0.013	0.001874	0.000927	0.019858	0.00115	0.001183	0.001006	0.001008	0.000701	0.000748	0.00093
0.0135	0.001912	0.000947	0.020377	0.001173	0.00122	0.001028	0.001026	0.000715	0.000769	0.000951
0.014	0.00195	0.000967	0.020891	0.001196	0.001257	0.001049	0.001043	0.000729	0.000789	0.000973
0.0145	0.001987	0.000987	0.0214	0.001218	0.001294	0.00107	0.00106	0.000743	0.000809	0.000994
0.015	0.002024	0.001007	0.021904	0.00124	0.00133	0.001091	0.001077	0.000757	0.000829	0.001015
0.0155	0.00206	0.001026	0.022403	0.001262	0.001367	0.001112	0.001093	0.000771	0.000849	0.001035
0.016	0.002096	0.001045	0.022897	0.001283	0.001403	0.001132	0.001108	0.000784	0.000869	0.001056
0.0165	0.002131	0.001063	0.023386	0.001303	0.001439	0.001152	0.001124	0.000797	0.000888	0.001076
0.017	0.002165	0.001082	0.023869	0.001324	0.001474	0.001171	0.001139	0.00081	0.000908	0.001096
0.0175	0.0022	0.0011	0.024347	0.001344	0.001509	0.001191	0.001154	0.000823	0.000927	0.001115
0.018	0.002234	0.001117	0.024819	0.001363	0.001544	0.00121	0.001168	0.000836	0.000946	0.001135
0.0185	0.002268	0.001135	0.025286	0.001383	0.001579	0.001228	0.001182	0.000848	0.000965	0.001154
0.019	0.002301	0.001152	0.025747	0.001402	0.001613	0.001247	0.001196	0.00086	0.000984	0.001172
0.0195	0.002334	0.001169	0.026203	0.00142	0.001647	0.001265	0.00121	0.000873	0.001003	0.001191
0.02	0.002367	0.001185	0.026653	0.001439	0.00168	0.001283	0.001223	0.000885	0.001021	0.001209
0.0205	0.002399	0.001202	0.027098	0.001457	0.001714	0.0013	0.001237	0.000897	0.001039	0.001228
0.021	0.002432	0.001218	0.027537	0.001475	0.001746	0.001318	0.00125	0.000908	0.001058	0.001246
0.0215	0.002464	0.001234	0.02797	0.001492	0.001778	0.001335	0.001262	0.00092	0.001076	0.001263
0.022	0.002495	0.001249	0.028397	0.001509	0.00181	0.001352	0.001275	0.000932	0.001093	0.001281
0.0225	0.002527	0.001265	0.028818	0.001526	0.001842	0.001368	0.001288	0.000943	0.001111	0.001298
0.023	0.002558	0.00128	0.029233	0.001543	0.001873	0.001385	0.0013	0.000954	0.001128	0.001315
0.0235	0.00259	0.001295	0.029643	0.00156	0.001903	0.001401	0.001312	0.000966	0.001146	0.001332
0.024	0.002621	0.00131	0.030046	0.001576	0.001933	0.001417	0.001324	0.000977	0.001163	0.001348
0.0245	0.002651	0.001324	0.030444	0.001592	0.001962	0.001432	0.001335	0.000988	0.00118	0.001365
0.025	0.002682	0.001338	0.030835	0.001607	0.001991	0.001447	0.001347	0.000999	0.001196	0.001381
0.0255	0.002712	0.001353	0.03122	0.001623	0.00202	0.001462	0.001358	0.001009	0.001213	0.001397
0.026	0.002743	0.001367	0.031599	0.001638	0.002048	0.001477	0.001369	0.00102	0.001229	0.001412
0.0265	0.002773	0.00138	0.031972	0.001653	0.002075	0.001492	0.001381	0.001031	0.001245	0.001428
0.027	0.002803	0.001394	0.032338	0.001668	0.002102	0.001506	0.001391	0.001041	0.001261	0.001443
0.0275	0.002832	0.001408	0.032698	0.001682	0.002128	0.00152	0.001402	0.001051	0.001277	0.001458
0.028	0.002862	0.001421	0.033052	0.001696	0.002154	0.001534	0.001413	0.001062	0.001293	0.001473
0.0285	0.002891	0.001434	0.0334	0.00171	0.002179	0.001547	0.001423	0.001072	0.001308	0.001487
0.029	0.002921	0.001447	0.033742	0.001724	0.002204	0.00156	0.001434	0.001082	0.001323	0.001501
0.0295	0.00295	0.00146	0.034077	0.001737	0.002228	0.001573	0.001444	0.001092	0.001338	0.001515
0.03	0.002979	0.001473	0.034405	0.001751	0.002252	0.001586	0.001454	0.001102	0.001353	0.001529
0.0305	0.003007	0.001485	0.034727	0.001764	0.002274	0.001598	0.001464	0.001112	0.001367	0.001543
0.031	0.003036	0.001498	0.035043	0.001776	0.002297	0.00161	0.001473	0.001121	0.001382	0.001556
0.0315	0.003064	0.00151	0.035353	0.001789	0.002319	0.001622	0.001483	0.001131	0.001396	0.001569
0.032	0.003093	0.001523	0.035656	0.001801	0.00234	0.001634	0.001492	0.00114	0.00141	0.001582
0.0325	0.003121	0.001535	0.035952	0.001813	0.00236	0.001645	0.001502	0.00115	0.001423	0.001595
0.033	0.003149	0.001547	0.036242	0.001825	0.00238	0.001656	0.001511	0.001159	0.001437	0.001608
0.0335	0.003177	0.001559	0.036526	0.001836	0.0024	0.001666	0.00152	0.001168	0.00145	0.00162
0.034	0.003204	0.001571	0.036803	0.001847	0.002419	0.001677	0.001529	0.001177	0.001463	0.001632
0.0345	0.003232	0.001583	0.037074	0.001858	0.002437	0.001687	0.001537	0.001186	0.001476	0.001644
0.035	0.003259	0.001595	0.037339	0.001869	0.002454	0.001697	0.001546	0.001195	0.001488	0.001655
0.0355	0.003286	0.001607	0.037597	0.001879	0.002471	0.001706	0.001554	0.001204	0.001501	0.001667
0.036	0.003313	0.001619	0.037848	0.001889	0.002488	0.001716	0.001563	0.001213	0.001513	0.001678
0.0365	0.00334	0.00163	0.038094	0.001899	0.002504	0.001725	0.001571	0.001221	0.001525	0.001689
0.037	0.003366	0.001642	0.038333	0.001909	0.002519	0.001733	0.001579	0.00123	0.001536	0.001699
0.0375	0.003393	0.001654	0.038565	0.001918	0.002533	0.001742	0.001587	0.001238	0.001548	0.00171
0.038	0.003419	0.001666	0.038791	0.001928	0.002547	0.00175	0.001594	0.001247	0.001559	0.00172
0.0385	0.003445	0.001677	0.039011	0.001936	0.002561	0.001757	0.001602	0.001255	0.00157	0.00173
0.039	0.003471	0.001689	0.039225	0.001945	0.002573	0.001765	0.001609	0.001263	0.001581	0.00174
0.0395	0.003497	0.001701	0.039433	0.001954	0.002585	0.001772	0.001617	0.001271	0.001592	0.00175
0.04	0.003522	0.001713	0.039634	0.001962	0.002597	0.001779	0.001624	0.001279	0.001602	0.001759
0.0405	0.003548	0.001725	0.039829	0.001969	0.002608	0.001786	0.001631	0.001287	0.001612	0.001768
0.041	0.003573	0.001737	0.040018	0.001977	0.002618	0.001792	0.001638	0.001294	0.001622	0.001777
0.0415	0.003598	0.001749	0.040201	0.001984	0.002627	0.001798	0.001644	0.001302	0.001632	0.001786
0.042	0.003623	0.001761	0.040378	0.001992	0.002636	0.001804	0.001651	0.00131	0.001641	0.001794
0.0425	0.003648	0.001773	0.040548	0.001998	0.002645	0.001809	0.001657	0.001317	0.00165	0.001802
0.043	0.003672	0.001785	0.040713	0.002005	0.002653	0.001814	0.001664	0.001324	0.001659	0.00181
0.0435	0.003696	0.001797	0.040872	0.002011	0.00266	0.001819	0.00167	0.001332	0.001668	0.001818
0.044	0.003721	0.00181	0.041025	0.002017	0.002666	0.001823	0.001676	0.001339	0.001677	0.001826
0.0445	0.003744	0.001822	0.041173	0.002023	0.002672	0.001828	0.001681	0.001346	0.001685	0.001833
0.045	0.003768	0.001835	0.041314	0.002029	0.002678	0.001831	0.001687	0.001353	0.001693	0.001841
0.0455	0.003792	0.001847	0.04145	0.002034	0.002682	0.001835	0.001693	0.00136	0.001701	0.001848
0.046	0.003815	0.00186	0.04158	0.002039	0.002686	0.001838	0.001698	0.001367	0.001709	0.001854
0.0465	0.003838	0.001873	0.041705	0.002044	0.00269	0.001841	0.001703	0.001373	0.001716	0.001861
0.047	0.003861	0.001887	0.041824	0.002048	0.002693	0.001844	0.001709	0.00138	0.001723	0.001867
0.0475	0.003884	0.0019	0.041938	0.002053	0.002695	0.001847	0.001714	0.001386	0.001731	0.001874
0.048	0.003907	0.001913	0.042046	0.002057	0.002697	0.001849	0.001718	0.001393	0.001737	0.00188
0.0485	0.003929	0.001927	0.042149	0.002061	0.002699	0.001851	0.001723	0.001399	0.001744	0.001885
0.049	0.003951	0.001941	0.042247	0.002064	0.002699	0.001852	0.001728	0.001405	0.00175	0.001891
0.0495	0.003974	0.001955	0.04234	0.002068	0.002699	0.001854	0.001732	0.001411	0.001756	0.001896
0.05	0.003995	0.001969	0.042427	0.002071	0.002699	0.001855	0.001736	0.001417	0.001762	0.001902
0.0505	0.004017	0.001984	0.04251	0.002074	0.002698	0.001855	0.001741	0.001423	0.001768	0.001907
0.051	0.004039	0.001999	0.042588	0.002076	0.002696	0.001856	0.001745	0.001429	0.001774	0.001912
0.0515	0.00406	0.002014	0.04266	0.002079	0.002694	0.001856	0.001749	0.001435	0.001779	0.001916
0.052	0.004081	0.002029	0.042728	0.002081	0.002692	0.001856	0.001752	0.001441	0.001784	0.001921
0.0525	0.004102	0.002044	0.042792	0.002083	0.002689	0.001856	0.001756	0.001446	0.001789	0.001925
0.053	0.004123	0.00206	0.04285	0.002084	0.002685	0.001855	0.001759	0.001452	0.001794	0.001929
0.0535	0.004143	0.002076	0.042905	0.002086	0.002681	0.001854	0.001763	0.001457	0.001798	0.001933
0.054	0.004164	0.002093	0.042954	0.002087	0.002676	0.001853	0.001766	0.001463	0.001803	0.001937
0.0545	0.004184	0.002109	0.043	0.002088	0.002671	0.001852	0.001769	0.001468	0.001807	0.001941
0.055	0.004204	0.002126	0.043041	0.002089	0.002665	0.00185	0.001772	0.001473	0.00181	0.001944
0.0555	0.004224	0.002143	0.043078	0.002089	0.002659	0.001848	0.001775	0.001478	0.001814	0.001947
0.056	0.004243	0.002161	0.043111	0.00209	0.002653	0.001846	0.001777	0.001483	0.001818	0.001951
0.0565	0.004263	0.002178	0.043139	0.00209	0.002646	0.001844	0.00178	0.001488	0.001821	0.001954
0.057	0.004282	0.002196	0.043164	0.00209	0.002638	0.001841	0.001782	0.001493	0.001824	0.001956
0.0575	0.004301	0.002215	0.043185	0.002089	0.00263	0.001838	0.001785	0.001498	0.001827	0.001959
0.058	0.00432	0.002234	0.043203	0.002089	0.002622	0.001835	0.001787	0.001502	0.00183	0.001962
0.0585	0.004339	0.002253	0.043217	0.002088	0.002613	0.001832	0.001789	0.001507	0.001832	0.001964
0.059	0.004357	0.002272	0.043227	0.002087	0.002603	0.001828	0.001791	0.001512	0.001835	0.001966
0.0595	0.004375	0.002292	0.043233	0.002086	0.002594	0.001824	0.001792	0.001516	0.001837	0.001968
0.06	0.004394	0.002312	0.043237	0.002085	0.002583	0.00182	0.001794	0.00152	0.001839	0.00197
0.0605	0.004411	0.002333	0.043237	0.002083	0.002573	0.001816	0.001796	0.001525	0.001841	0.001972
0.061	0.004429	0.002354	0.043234	0.002082	0.002562	0.001811	0.001797	0.001529	0.001842	0.001974
0.0615	0.004447	0.002375	0.043228	0.00208	0.002551	0.001807	0.001798	0.001533	0.001844	0.001975
0.062	0.004464	0.002396	0.043218	0.002078	0.002539	0.001802	0.001799	0.001537	0.001845	0.001977
0.0625	0.004482	0.002418	0.043206	0.002076	0.002527	0.001797	0.0018	0.001541	0.001846	0.001978
0.063	0.004499	0.002441	0.043191	0.002073	0.002515	0.001791	0.001801	0.001545	0.001847	0.001979
0.0635	0.004515	0.002464	0.043174	0.002071	0.002502	0.001786	0.001802	0.001549	0.001848	0.00198
0.064	0.004532	0.002487	0.043154	0.002068	0.002489	0.00178	0.001803	0.001553	0.001849	0.001981
0.0645	0.004549	0.002511	0.043131	0.002065	0.002476	0.001775	0.001803	0.001556	0.001849	0.001982
0.065	0.004565	0.002535	0.043106	0.002062	0.002462	0.001769	0.001804	0.00156	0.00185	0.001983
0.0655	0.004581	0.002559	0.043078	0.002059	0.002448	0.001762	0.001804	0.001564	0.00185	0.001983
0.066	0.004597	0.002584	0.043049	0.002055	0.002434	0.001756	0.001804	0.001567	0.00185	0.001984
0.0665	0.004613	0.002609	0.043017	0.002052	0.002419	0.00175	0.001804	0.001571	0.00185	0.001984
0.067	0.004629	0.002635	0.042983	0.002048	0.002405	0.001743	0.001804	0.001574	0.00185	0.001984
0.0675	0.004644	0.002661	0.042947	0.002044	0.00239	0.001736	0.001804	0.001577	0.001849	0.001984
0.068	0.004659	0.002687	0.042909	0.00204	0.002375	0.001729	0.001804	0.001581	0.001849	0.001984
0.0685	0.004674	0.002714	0.04287	0.002036	0.002359	0.001722	0.001803	0.001584	0.001848	0.001984
0.069	0.004689	0.002742	0.042829	0.002032	0.002344	0.001715	0.001803	0.001587	0.001847	0.001984
0.0695	0.004704	0.00277	0.042786	0.002028	0.002328	0.001708	0.001802	0.00159	0.001846	0.001984
0.07	0.004719	0.002798	0.042741	0.002023	0.002312	0.0017	0.001801	0.001593	0.001845	0.001984
0.0705	0.004733	0.002827	0.042696	0.002019	0.002296	0.001692	0.0018	0.001596	0.001844	0.001983
0.071	0.004747	0.002856	0.042648	0.002014	0.002279	0.001685	0.001799	0.001599	0.001843	0.001983
0.0715	0.004761	0.002885	0.0426	0.002009	0.002263	0.001677	0.001798	0.001602	0.001841	0.001982
0.072	0.004775	0.002915	0.04255	0.002005	0.002246	0.001669	0.001797	0.001605	0.00184	0.001981
0.0725	0.004789	0.002946	0.0425	0.002	0.002229	0.001661	0.001796	0.001608	0.001838	0.001981
0.073	0.004803	0.002977	0.042448	0.001994	0.002213	0.001653	0.001795	0.00161	0.001836	0.00198
0.0735	0.004816	0.003008	0.042395	0.001989	0.002196	0.001645	0.001793	0.001613	0.001834	0.001979
0.074	0.004829	0.00304	0.042342	0.001984	0.002179	0.001636	0.001791	0.001616	0.001832	0.001978
0.0745	0.004842	0.003072	0.042288	0.001979	0.002162	0.001628	0.00179	0.001618	0.00183	0.001977
0.075	0.004855	0.003104	0.042233	0.001973	0.002145	0.00162	0.001788	0.001621	0.001828	0.001976
0.0755	0.004868	0.003138	0.042177	0.001968	0.002127	0.001611	0.001786	0.001623	0.001826	0.001975
0.076	0.004881	0.003171	0.042121	0.001962	0.00211	0.001603	0.001784	0.001625	0.001823	0.001974
0.0765	0.004893	0.003205	0.042065	0.001957	0.002093	0.001594	0.001782	0.001628	0.001821	0.001972
0.077	0.004905	0.003239	0.042008	0.001951	0.002076	0.001586	0.00178	0.00163	0.001818	0.001971
0.0775	0.004917	0.003274	0.04195	0.001945	0.002059	0.001577	0.001777	0.001632	0.001815	0.00197
0.078	0.004929	0.003309	0.041893	0.001939	0.002042	0.001568	0.001775	0.001634	0.001812	0.001968
0.0785	0.004941	0.003345	0.041835	0.001934	0.002025	0.00156	0.001772	0.001637	0.001809	0.001967
0.079	0.004953	0.003381	0.041777	0.001928	0.002008	0.001551	0.00177	0.001639	0.001806	0.001965
0.0795	0.004964	0.003417	0.041719	0.001922	0.001991	0.001542	0.001767	0.001641	0.001803	0.001964
0.08	0.004975	0.003454	0.041661	0.001916	0.001974	0.001533	0.001764	0.001643	0.0018	0.001962
0.0805	0.004987	0.003491	0.041603	0.00191	0.001957	0.001525	0.001761	0.001645	0.001797	0.00196
0.081	0.004997	0.003528	0.041546	0.001904	0.00194	0.001516	0.001758	0.001647	0.001794	0.001959
0.0815	0.005008	0.003566	0.041488	0.001898	0.001924	0.001507	0.001755	0.001649	0.00179	0.001957
0.082	0.005019	0.003605	0.041431	0.001892	0.001907	0.001498	0.001752	0.001651	0.001787	0.001955
0.0825	0.005029	0.003643	0.041374	0.001886	0.001891	0.00149	0.001749	0.001652	0.001783	0.001953
0.083	0.00504	0.003682	0.041317	0.00188	0.001875	0.001481	0.001746	0.001654	0.00178	0.001951
0.0835	0.00505	0.003722	0.041261	0.001874	0.001859	0.001472	0.001742	0.001656	0.001776	0.001949
0.084	0.00506	0.003762	0.041205	0.001868	0.001844	0.001464	0.001739	0.001658	0.001773	0.001948
0.0845	0.00507	0.003802	0.04115	0.001862	0.001828	0.001455	0.001735	0.001659	0.001769	0.001946
0.085	0.00508	0.003842	0.041095	0.001856	0.001813	0.001447	0.001731	0.001661	0.001765	0.001944
0.0855	0.005089	0.003883	0.041041	0.00185	0.001798	0.001438	0.001727	0.001663	0.001761	0.001942
0.086	0.005098	0.003924	0.040987	0.001844	0.001783	0.00143	0.001724	0.001664	0.001757	0.00194
0.0865	0.005108	0.003965	0.040935	0.001839	0.001769	0.001422	0.00172	0.001666	0.001753	0.001938
0.087	0.005117	0.004007	0.040882	0.001833	0.001755	0.001414	0.001716	0.001667	0.001749	0.001936
0.0875	0.005126	0.004049	0.040831	0.001827	0.001741	0.001406	0.001711	0.001669	0.001745	0.001933
0.088	0.005135	0.004091	0.040781	0.001821	0.001727	0.001397	0.001707	0.00167	0.001741	0.001931
0.0885	0.005143	0.004134	0.040731	0.001816	0.001714	0.00139	0.001703	0.001671	0.001737	0.001929
0.089	0.005152	0.004177	0.040682	0.00181	0.001701	0.001382	0.001699	0.001673	0.001733	0.001927
0.0895	0.00516	0.00422	0.040634	0.001805	0.001689	0.001374	0.001694	0.001674	0.001729	0.001925
0.09	0.005168	0.004263	0.040587	0.001799	0.001676	0.001366	0.00169	0.001675	0.001725	0.001923
0.0905	0.005176	0.004307	0.040541	0.001794	0.001665	0.001359	0.001685	0.001677	0.001721	0.001921
0.091	0.005184	0.004351	0.040496	0.001788	0.001653	0.001351	0.00168	0.001678	0.001717	0.001918
0.0915	0.005192	0.004395	0.040452	0.001783	0.001642	0.001344	0.001675	0.001679	0.001712	0.001916
0.092	0.005199	0.004439	0.04041	0.001778	0.001632	0.001337	0.001671	0.00168	0.001708	0.001914
0.0925	0.005207	0.004483	0.040368	0.001773	0.001622	0.00133	0.001666	0.001682	0.001704	0.001912
0.093	0.005214	0.004528	0.040327	0.001768	0.001612	0.001323	0.001661	0.001683	0.0017	0.00191
0.0935	0.005221	0.004573	0.040287	0.001764	0.001603	0.001317	0.001656	0.001684	0.001695	0.001907
0.094	0.005228	0.004618	0.040249	0.001759	0.001594	0.00131	0.00165	0.001685	0.001691	0.001905
0.0945	0.005235	0.004663	0.040212	0.001754	0.001586	0.001304	0.001645	0.001686	0.001687	0.001903
0.095	0.005241	0.004708	0.040175	0.00175	0.001578	0.001297	0.00164	0.001687	0.001682	0.001901
0.0955	0.005248	0.004753	0.04014	0.001746	0.001571	0.001291	0.001635	0.001688	0.001678	0.001898
0.096	0.005254	0.004799	0.040107	0.001742	0.001564	0.001286	0.001629	0.001689	0.001674	0.001896
0.0965	0.00526	0.004844	0.040074	0.001738	0.001558	0.00128	0.001624	0.00169	0.00167	0.001894
0.097	0.005267	0.00489	0.040043	0.001734	0.001553	0.001274	0.001618	0.001691	0.001665	0.001892
0.0975	0.005272	0.004935	0.040013	0.00173	0.001548	0.001269	0.001613	0.001692	0.001661	0.001889
0.098	0.005278	0.004981	0.039984	0.001727	0.001543	0.001264	0.001607	0.001693	0.001657	0.001887
0.0985	0.005284	0.005027	0.039956	0.001723	0.001539	0.001259	0.001601	0.001694	0.001653	0.001885
0.099	0.005289	0.005073	0.03993	0.00172	0.001536	0.001254	0.001596	0.001695	0.001648	0.001883
0.0995	0.005295	0.005118	0.039905	0.001717	0.001533	0.00125	0.00159	0.001696	0.001644	0.00188
0.1	0.0053	0.005164	0.039881	0.001714	0.001531	0.001246	0.001584	0.001696	0.00164	0.001878
0.1005	0.005305	0.00521	0.039858	0.001712	0.00153	0.001242	0.001578	0.001697	0.001636	0.001876
0.101	0.00531	0.005256	0.039837	0.001709	0.001529	0.001238	0.001572	0.001698	0.001632	0.001874
0.1015	0.005314	0.005301	0.039817	0.001707	0.001529	0.001234	0.001566	0.001699	0.001628	0.001871
0.102	0.005319	0.005347	0.039798	0.001705	0.00153	0.001231	0.00156	0.0017	0.001623	0.001869
0.1025	0.005323	0.005393	0.03978	0.001703	0.001531	0.001228	0.001554	0.0017	0.001619	0.001867
0.103	0.005327	0.005438	0.039764	0.001701	0.001533	0.001225	0.001547	0.001701	0.001615	0.001865
0.1035	0.005332	0.005483	0.039749	0.0017	0.001536	0.001222	0.001541	0.001702	0.001611	0.001862
0.104	0.005335	0.005529	0.039735	0.001699	0.001539	0.00122	0.001535	0.001702	0.001607	0.00186
0.1045	0.005339	0.005574	0.039723	0.001698	0.001544	0.001217	0.001529	0.001703	0.001604	0.001858
0.105	0.005343	0.005619	0.039711	0.001697	0.001548	0.001216	0.001522	0.001704	0.0016	0.001856
0.1055	0.005346	0.005663	0.039701	0.001696	0.001554	0.001214	0.001516	0.001704	0.001596	0.001854
0.106	0.00535	0.005708	0.039692	0.001696	0.001561	0.001212	0.00151	0.001705	0.001592	0.001851
0.1065	0.005353	0.005752	0.039685	0.001696	0.001568	0.001211	0.001503	0.001706	0.001588	0.001849
0.107	0.005356	0.005797	0.039678	0.001696	0.001576	0.00121	0.001497	0.001706	0.001585	0.001847
0.1075	0.005359	0.005841	0.039673	0.001697	0.001585	0.00121	0.00149	0.001707	0.001581	0.001845
0.108	0.005362	0.005884	0.039669	0.001697	0.001594	0.00121	0.001484	0.001708	0.001577	0.001843
0.1085	0.005364	0.005928	0.039666	0.001698	0.001604	0.001209	0.001477	0.001708	0.001574	0.001841
0.109	0.005367	0.005971	0.039664	0.0017	0.001616	0.00121	0.001471	0.001709	0.00157	0.001839
0.1095	0.005369	0.006014	0.039663	0.001701	0.001628	0.00121	0.001464	0.001709	0.001567	0.001836
0.11	0.005371	0.006056	0.039664	0.001703	0.00164	0.001211	0.001457	0.00171	0.001563	0.001834
0.1105	0.005373	0.006099	0.039665	0.001705	0.001654	0.001212	0.001451	0.00171	0.00156	0.001832
0.111	0.005375	0.006141	0.039668	0.001707	0.001669	0.001213	0.001444	0.001711	0.001557	0.00183
0.1115	0.005377	0.006182	0.039672	0.00171	0.001684	0.001215	0.001438	0.001711	0.001553	0.001828
0.112	0.005378	0.006223	0.039677	0.001713	0.0017	0.001217	0.001431	0.001712	0.00155	0.001826
0.1125	0.00538	0.006264	0.039683	0.001716	0.001717	0.001219	0.001424	0.001712	0.001547	0.001824
0.113	0.005381	0.006304	0.03969	0.00172	0.001735	0.001222	0.001418	0.001713	0.001544	0.001822
0.1135	0.005382	0.006344	0.039698	0.001724	0.001754	0.001225	0.001411	0.001713	0.001541	0.00182
0.114	0.005383	0.006384	0.039707	0.001728	0.001774	0.001228	0.001404	0.001714	0.001538	0.001818
0.1145	0.005384	0.006423	0.039717	0.001732	0.001795	0.001231	0.001398	0.001714	0.001535	0.001816
0.115	0.005384	0.006462	0.039728	0.001737	0.001816	0.001235	0.001391	0.001715	0.001533	0.001814
0.1155	0.005385	0.0065	0.03974	0.001742	0.001839	0.001239	0.001384	0.001715	0.00153	0.001812
0.116	0.005385	0.006538	0.039753	0.001748	0.001862	0.001243	0.001378	0.001715	0.001527	0.00181
0.1165	0.005385	0.006575	0.039766	0.001754	0.001886	0.001248	0.001371	0.001716	0.001525	0.001808
0.117	0.005385	0.006612	0.039781	0.00176	0.001912	0.001253	0.001365	0.001716	0.001522	0.001806
0.1175	0.005385	0.006648	0.039797	0.001766	0.001938	0.001258	0.001358	0.001717	0.00152	0.001804
0.118	0.005385	0.006683	0.039813	0.001773	0.001965	0.001264	0.001352	0.001717	0.001517	0.001802
0.1185	0.005384	0.006719	0.039831	0.00178	0.001993	0.00127	0.001345	0.001718	0.001515	0.0018
0.119	0.005384	0.006753	0.039849	0.001788	0.002022	0.001276	0.001339	0.001718	0.001513	0.001798
0.1195	0.005383	0.006787	0.039868	0.001796	0.002052	0.001282	0.001332	0.001718	0.001511	0.001796
0.12	0.005382	0.00682	0.039888	0.001804	0.002083	0.001289	0.001326	0.001719	0.001508	0.001794
0.1205	0.005381	0.006853	0.039909	0.001813	0.002115	0.001296	0.00132	0.001719	0.001506	0.001792
0.121	0.00538	0.006885	0.03993	0.001822	0.002147	0.001303	0.001314	0.00172	0.001505	0.00179
0.1215	0.005379	0.006917	0.039952	0.001831	0.002181	0.001311	0.001307	0.00172	0.001503	0.001788
0.122	0.005377	0.006947	0.039975	0.001841	0.002216	0.001319	0.001301	0.00172	0.001501	0.001786
0.1225	0.005376	0.006978	0.039999	0.001851	0.002251	0.001328	0.001295	0.001721	0.001499	0.001784
0.123	0.005374	0.007007	0.040024	0.001862	0.002288	0.001336	0.001289	0.001721	0.001498	0.001783
0.1235	0.005372	0.007036	0.040049	0.001872	0.002326	0.001345	0.001283	0.001722	0.001496	0.001781
0.124	0.00537	0.007064	0.040075	0.001884	0.002364	0.001354	0.001277	0.001722	0.001495	0.001779
0.1245	0.005367	0.007091	0.040101	0.001895	0.002404	0.001364	0.001272	0.001722	0.001493	0.001777
0.125	0.005365	0.007118	0.040128	0.001907	0.002444	0.001374	0.001266	0.001723	0.001492	0.001775
0.1255	0.005362	0.007144	0.040156	0.00192	0.002486	0.001384	0.00126	0.001723	0.001491	0.001773
0.126	0.00536	0.007169	0.040185	0.001933	0.002528	0.001394	0.001255	0.001724	0.00149	0.001772
0.1265	0.005357	0.007194	0.040214	0.001946	0.002571	0.001405	0.001249	0.001724	0.001489	0.00177
0.127	0.005354	0.007218	0.040244	0.00196	0.002616	0.001416	0.001244	0.001724	0.001488	0.001768
0.1275	0.005351	0.007241	0.040274	0.001974	0.002661	0.001427	0.001239	0.001725	0.001487	0.001766
0.128	0.005347	0.007263	0.040305	0.001988	0.002707	0.001439	0.001234	0.001725	0.001486	0.001764
0.1285	0.005344	0.007284	0.040336	0.002003	0.002754	0.001451	0.001229	0.001726	0.001485	0.001763
0.129	0.00534	0.007305	0.040368	0.002019	0.002803	0.001463	0.001224	0.001726	0.001484	0.001761
0.1295	0.005336	0.007325	0.040401	0.002034	0.002852	0.001475	0.001219	0.001727	0.001484	0.001759
0.13	0.005332	0.007344	0.040434	0.002051	0.002902	0.001488	0.001214	0.001727	0.001483	0.001758
0.1305	0.005328	0.007362	0.040468	0.002067	0.002953	0.001501	0.00121	0.001728	0.001483	0.001756
0.131	0.005324	0.00738	0.040502	0.002084	0.003005	0.001515	0.001205	0.001728	0.001483	0.001754
0.1315	0.00532	0.007397	0.040537	0.002102	0.003058	0.001528	0.001201	0.001728	0.001482	0.001752
0.132	0.005315	0.007412	0.040572	0.002119	0.003111	0.001542	0.001197	0.001729	0.001482	0.001751
0.1325	0.00531	0.007427	0.040607	0.002138	0.003166	0.001556	0.001193	0.001729	0.001482	0.001749
0.133	0.005305	0.007442	0.040643	0.002157	0.003222	0.00157	0.001189	0.00173	0.001482	0.001748
0.1335	0.0053	0.007455	0.04068	0.002176	0.003278	0.001585	0.001185	0.00173	0.001482	0.001746
0.134	0.005295	0.007467	0.040717	0.002195	0.003336	0.0016	0.001182	0.001731	0.001482	0.001744
0.1345	0.00529	0.007479	0.040755	0.002215	0.003394	0.001615	0.001179	0.001731	0.001482	0.001743
0.135	0.005284	0.00749	0.040793	0.002236	0.003454	0.00163	0.001176	0.001732	0.001483	0.001741
0.1355	0.005278	0.0075	0.040831	0.002257	0.003514	0.001646	0.001173	0.001732	0.001483	0.00174
0.136	0.005273	0.007509	0.04087	0.002278	0.003575	0.001662	0.00117	0.001733	0.001483	0.001738
0.1365	0.005267	0.007517	0.040909	0.0023	0.003637	0.001678	0.001167	0.001734	0.001484	0.001737
0.137	0.00526	0.007524	0.040949	0.002322	0.0037	0.001694	0.001165	0.001734	0.001484	0.001735
0.1375	0.005254	0.007531	0.040989	0.002345	0.003763	0.001711	0.001162	0.001735	0.001485	0.001734
0.138	0.005248	0.007536	0.041029	0.002368	0.003828	0.001728	0.00116	0.001735	0.001486	0.001732
0.1385	0.005241	0.007541	0.04107	0.002392	0.003893	0.001744	0.001159	0.001736	0.001487	0.001731
0.139	0.005234	0.007545	0.041112	0.002416	0.00396	0.001762	0.001157	0.001737	0.001487	0.001729
0.1395	0.005227	0.007548	0.041153	0.00244	0.004027	0.001779	0.001156	0.001737	0.001488	0.001728
0.14	0.00522	0.00755	0.041195	0.002465	0.004095	0.001797	0.001155	0.001738	0.001489	0.001726
0.1405	0.005213	0.007551	0.041238	0.002491	0.004163	0.001814	0.001154	0.001739	0.00149	0.001725
0.141	0.005205	0.007552	0.041281	0.002517	0.004233	0.001832	0.001153	0.001739	0.001491	0.001724
0.1415	0.005198	0.007551	0.041324	0.002543	0.004303	0.001851	0.001152	0.00174	0.001493	0.001722
0.142	0.00519	0.00755	0.041368	0.00257	0.004374	0.001869	0.001152	0.001741	0.001494	0.001721
0.1425	0.005182	0.007548	0.041412	0.002597	0.004446	0.001888	0.001152	0.001741	0.001495	0.00172
0.143	0.005174	0.007544	0.041457	0.002625	0.004519	0.001906	0.001153	0.001742	0.001497	0.001718
0.1435	0.005166	0.00754	0.041502	0.002653	0.004592	0.001925	0.001153	0.001743	0.001498	0.001717
0.144	0.005157	0.007536	0.041547	0.002682	0.004666	0.001944	0.001154	0.001744	0.0015	0.001716
0.1445	0.005149	0.00753	0.041593	0.002711	0.004741	0.001963	0.001155	0.001745	0.001501	0.001715
0.145	0.00514	0.007523	0.041639	0.00274	0.004817	0.001983	0.001156	0.001745	0.001503	0.001714
0.1455	0.005131	0.007516	0.041686	0.00277	0.004893	0.002002	0.001158	0.001746	0.001504	0.001712
0.146	0.005122	0.007508	0.041733	0.002801	0.00497	0.002022	0.00116	0.001747	0.001506	0.001711
0.1465	0.005113	0.007499	0.04178	0.002831	0.005047	0.002041	0.001162	0.001748	0.001508	0.00171
0.147	0.005104	0.007489	0.041828	0.002863	0.005126	0.002061	0.001165	0.001749	0.00151	0.001709
0.1475	0.005094	0.007478	0.041876	0.002895	0.005204	0.002081	0.001168	0.00175	0.001512	0.001708
0.148	0.005084	0.007466	0.041925	0.002927	0.005284	0.002101	0.001171	0.001751	0.001514	0.001707
0.1485	0.005074	0.007454	0.041974	0.00296	0.005364	0.002121	0.001174	0.001752	0.001516	0.001706
0.149	0.005064	0.007441	0.042023	0.002993	0.005445	0.002142	0.001178	0.001753	0.001518	0.001705
0.1495	0.005054	0.007427	0.042073	0.003026	0.005526	0.002162	0.001182	0.001754	0.00152	0.001704
0.15	0.005044	0.007412	0.042124	0.003061	0.005608	0.002183	0.001186	0.001755	0.001522	0.001703
0.1505	0.005034	0.007396	0.042174	0.003095	0.00569	0.002203	0.001191	0.001756	0.001524	0.001703
0.151	0.005023	0.00738	0.042226	0.00313	0.005773	0.002224	0.001196	0.001757	0.001526	0.001702
0.1515	0.005012	0.007362	0.042277	0.003165	0.005857	0.002244	0.001202	0.001758	0.001529	0.001701
0.152	0.005001	0.007344	0.04233	0.003201	0.005941	0.002265	0.001207	0.001759	0.001531	0.0017
0.1525	0.00499	0.007326	0.042382	0.003238	0.006025	0.002286	0.001213	0.00176	0.001533	0.0017
0.153	0.004979	0.007306	0.042436	0.003275	0.00611	0.002307	0.00122	0.001762	0.001536	0.001699
0.1535	0.004968	0.007286	0.042489	0.003312	0.006196	0.002328	0.001227	0.001763	0.001538	0.001698
0.154	0.004956	0.007265	0.042544	0.003349	0.006281	0.002349	0.001234	0.001764	0.00154	0.001698
0.1545	0.004944	0.007243	0.042598	0.003388	0.006368	0.002369	0.001241	0.001765	0.001543	0.001697
0.155	0.004933	0.007221	0.042653	0.003426	0.006454	0.00239	0.001249	0.001767	0.001545	0.001696
0.1555	0.004921	0.007198	0.042709	0.003465	0.006541	0.002411	0.001258	0.001768	0.001548	0.001696
0.156	0.004908	0.007174	0.042766	0.003505	0.006629	0.002432	0.001266	0.001769	0.00155	0.001696
0.1565	0.004896	0.007149	0.042822	0.003544	0.006717	0.002453	0.001275	0.001771	0.001553	0.001695
0.157	0.004884	0.007124	0.04288	0.003585	0.006805	0.002474	0.001285	0.001772	0.001556	0.001695
0.1575	0.004871	0.007098	0.042938	0.003625	0.006893	0.002495	0.001295	0.001774	0.001558	0.001694
0.158	0.004859	0.007071	0.042996	0.003667	0.006982	0.002516	0.001305	0.001775	0.001561	0.001694
0.1585	0.004846	0.007044	0.043056	0.003708	0.007071	0.002537	0.001316	0.001777	0.001564	0.001694
0.159	0.004833	0.007016	0.043115	0.00375	0.00716	0.002558	0.001327	0.001778	0.001566	0.001694
0.1595	0.00482	0.006988	0.043176	0.003793	0.00725	0.002579	0.001338	0.00178	0.001569	0.001694
0.16	0.004806	0.006959	0.043237	0.003836	0.00734	0.002599	0.00135	0.001781	0.001572	0.001693
0.1605	0.004793	0.006929	0.043299	0.003879	0.00743	0.00262	0.001362	0.001783	0.001574	0.001693
0.161	0.00478	0.006899	0.043361	0.003923	0.00752	0.002641	0.001375	0.001785	0.001577	0.001693
0.1615	0.004766	0.006868	0.043424	0.003967	0.00761	0.002661	0.001388	0.001786	0.00158	0.001693
0.162	0.004752	0.006837	0.043488	0.004011	0.007701	0.002682	0.001402	0.001788	0.001583	0.001694
0.1625	0.004738	0.006805	0.043552	0.004056	0.007791	0.002702	0.001416	0.00179	0.001585	0.001694
0.163	0.004724	0.006772	0.043617	0.004101	0.007882	0.002723	0.001431	0.001792	0.001588	0.001694
0.1635	0.00471	0.006739	0.043683	0.004147	0.007973	0.002743	0.001445	0.001793	0.001591	0.001694
0.164	0.004696	0.006706	0.04375	0.004193	0.008064	0.002763	0.001461	0.001795	0.001594	0.001694
0.1645	0.004682	0.006672	0.043817	0.00424	0.008154	0.002783	0.001477	0.001797	0.001597	0.001695
0.165	0.004667	0.006637	0.043885	0.004287	0.008245	0.002803	0.001493	0.001799	0.001599	0.001695
0.1655	0.004653	0.006602	0.043954	0.004334	0.008336	0.002823	0.001509	0.001801	0.001602	0.001695
0.166	0.004638	0.006567	0.044024	0.004382	0.008427	0.002843	0.001527	0.001803	0.001605	0.001696
0.1665	0.004624	0.006531	0.044094	0.00443	0.008518	0.002862	0.001544	0.001805	0.001608	0.001696
0.167	0.004609	0.006495	0.044166	0.004478	0.008609	0.002882	0.001562	0.001807	0.00161	0.001697
0.1675	0.004594	0.006458	0.044238	0.004527	0.0087	0.002901	0.001581	0.001809	0.001613	0.001698
0.168	0.004579	0.006421	0.044311	0.004577	0.008791	0.00292	0.0016	0.001811	0.001616	0.001698
0.1685	0.004564	0.006383	0.044385	0.004626	0.008881	0.002939	0.001619	0.001813	0.001618	0.001699
0.169	0.004549	0.006346	0.04446	0.004676	0.008972	0.002958	0.001639	0.001815	0.001621	0.0017
0.1695	0.004533	0.006307	0.044536	0.004726	0.009062	0.002977	0.001659	0.001818	0.001624	0.001701
0.17	0.004518	0.006269	0.044612	0.004777	0.009152	0.002995	0.00168	0.00182	0.001626	0.001701
0.1705	0.004503	0.00623	0.04469	0.004828	0.009242	0.003014	0.001702	0.001822	0.001629	0.001702
0.171	0.004487	0.006191	0.044769	0.00488	0.009332	0.003032	0.001723	0.001825	0.001632	0.001703
0.1715	0.004472	0.006151	0.044849	0.004931	0.009422	0.00305	0.001746	0.001827	0.001634	0.001704
0.172	0.004456	0.006112	0.044929	0.004983	0.009511	0.003068	0.001768	0.001829	0.001637	0.001706
0.1725	0.004441	0.006072	0.045011	0.005036	0.0096	0.003086	0.001791	0.001832	0.001639	0.001707
0.173	0.004425	0.006031	0.045094	0.005089	0.009689	0.003103	0.001815	0.001834	0.001642	0.001708
0.1735	0.004409	0.005991	0.045178	0.005142	0.009778	0.003121	0.001839	0.001837	0.001644	0.001709
0.174	0.004393	0.00595	0.045263	0.005195	0.009866	0.003138	0.001864	0.001839	0.001647	0.00171
0.1745	0.004378	0.005909	0.045349	0.005249	0.009954	0.003155	0.001889	0.001842	0.001649	0.001712
0.175	0.004362	0.005868	0.045436	0.005303	0.010041	0.003172	0.001914	0.001844	0.001652	0.001713
0.1755	0.004346	0.005827	0.045525	0.005357	0.010128	0.003188	0.00194	0.001847	0.001654	0.001715
0.176	0.00433	0.005785	0.045615	0.005412	0.010215	0.003205	0.001967	0.00185	0.001656	0.001716
0.1765	0.004314	0.005744	0.045705	0.005467	0.010301	0.003221	0.001994	0.001852	0.001659	0.001718
0.177	0.004299	0.005702	0.045798	0.005522	0.010387	0.003237	0.002021	0.001855	0.001661	0.001719
0.1775	0.004283	0.00566	0.045891	0.005578	0.010473	0.003252	0.002049	0.001858	0.001663	0.001721
0.178	0.004267	0.005618	0.045986	0.005633	0.010558	0.003268	0.002077	0.001861	0.001665	0.001723
0.1785	0.004251	0.005576	0.046082	0.00569	0.010642	0.003283	0.002106	0.001864	0.001668	0.001725
0.179	0.004235	0.005534	0.046179	0.005746	0.010726	0.003298	0.002135	0.001866	0.00167	0.001726
0.1795	0.00422	0.005492	0.046277	0.005803	0.01081	0.003313	0.002165	0.001869	0.001672	0.001728
0.18	0.004204	0.00545	0.046377	0.005859	0.010893	0.003328	0.002195	0.001872	0.001674	0.00173
0.1805	0.004188	0.005408	0.046479	0.005917	0.010975	0.003342	0.002226	0.001875	0.001676	0.001732
0.181	0.004173	0.005366	0.046582	0.005974	0.011057	0.003357	0.002257	0.001878	0.001678	0.001734
0.1815	0.004157	0.005324	0.046686	0.006032	0.011138	0.003371	0.002289	0.001881	0.001679	0.001736
0.182	0.004141	0.005281	0.046792	0.00609	0.011219	0.003385	0.002321	0.001884	0.001681	0.001738
0.1825	0.004126	0.005239	0.046899	0.006148	0.011299	0.003398	0.002353	0.001888	0.001683	0.001741
0.183	0.00411	0.005197	0.047008	0.006206	0.011378	0.003412	0.002386	0.001891	0.001685	0.001743
0.1835	0.004095	0.005155	0.047118	0.006265	0.011457	0.003425	0.002419	0.001894	0.001686	0.001745
0.184	0.00408	0.005113	0.04723	0.006323	0.011535	0.003438	0.002453	0.001897	0.001688	0.001747
0.1845	0.004065	0.005072	0.047343	0.006382	0.011612	0.00345	0.002487	0.0019	0.00169	0.00175
0.185	0.00405	0.00503	0.047458	0.006442	0.011689	0.003463	0.002522	0.001904	0.001691	0.001752
0.1855	0.004035	0.004988	0.047575	0.006501	0.011765	0.003475	0.002557	0.001907	0.001693	0.001755
0.186	0.00402	0.004947	0.047694	0.006561	0.01184	0.003487	0.002592	0.00191	0.001694	0.001757
0.1865	0.004005	0.004905	0.047814	0.00662	0.011915	0.003499	0.002628	0.001914	0.001695	0.00176
0.187	0.003991	0.004864	0.047936	0.00668	0.011988	0.003511	0.002665	0.001917	0.001697	0.001762
0.1875	0.003976	0.004823	0.048059	0.00674	0.012061	0.003522	0.002701	0.001921	0.001698	0.001765
0.188	0.003962	0.004782	0.048185	0.006801	0.012134	0.003534	0.002738	0.001924	0.001699	0.001767
0.1885	0.003948	0.004742	0.048312	0.006861	0.012205	0.003545	0.002776	0.001928	0.0017	0.00177
0.189	0.003934	0.004701	0.048441	0.006922	0.012276	0.003556	0.002814	0.001931	0.001701	0.001773
0.1895	0.00392	0.004661	0.048572	0.006982	0.012346	0.003566	0.002852	0.001935	0.001702	0.001776
0.19	0.003907	0.004621	0.048704	0.007043	0.012415	0.003577	0.002891	0.001938	0.001703	0.001778
0.1905	0.003893	0.004582	0.048839	0.007104	0.012483	0.003587	0.00293	0.001942	0.001704	0.001781
0.191	0.00388	0.004542	0.048976	0.007165	0.01255	0.003597	0.002969	0.001946	0.001705	0.001784
0.1915	0.003867	0.004503	0.049114	0.007226	0.012617	0.003607	0.003009	0.001949	0.001705	0.001787
0.192	0.003854	0.004464	0.049255	0.007287	0.012682	0.003617	0.003049	0.001953	0.001706	0.00179
0.1925	0.003841	0.004426	0.049398	0.007349	0.012747	0.003627	0.003089	0.001957	0.001707	0.001793
0.193	0.003829	0.004387	0.049542	0.00741	0.012811	0.003636	0.00313	0.001961	0.001707	0.001796
0.1935	0.003817	0.004349	0.049689	0.007472	0.012874	0.003646	0.003171	0.001964	0.001708	0.001799
0.194	0.003805	0.004312	0.049838	0.007533	0.012936	0.003655	0.003213	0.001968	0.001708	0.001802
0.1945	0.003793	0.004274	0.049989	0.007595	0.012997	0.003664	0.003254	0.001972	0.001708	0.001805
0.195	0.003782	0.004238	0.050142	0.007657	0.013058	0.003673	0.003297	0.001976	0.001709	0.001808
0.1955	0.003771	0.004201	0.050297	0.007719	0.013117	0.003682	0.003339	0.00198	0.001709	0.001811
0.196	0.00376	0.004165	0.050454	0.00778	0.013176	0.00369	0.003382	0.001984	0.001709	0.001814
0.1965	0.00375	0.004129	0.050614	0.007842	0.013233	0.003699	0.003425	0.001988	0.001709	0.001817
0.197	0.003739	0.004094	0.050776	0.007904	0.01329	0.003707	0.003468	0.001992	0.001709	0.00182
0.1975	0.003729	0.004059	0.05094	0.007966	0.013345	0.003716	0.003511	0.001996	0.001709	0.001823
0.198	0.00372	0.004024	0.051107	0.008028	0.0134	0.003724	0.003555	0.002	0.001709	0.001827
0.1985	0.003711	0.00399	0.051275	0.00809	0.013454	0.003732	0.003599	0.002004	0.001709	0.00183
0.199	0.003702	0.003956	0.051447	0.008152	0.013507	0.00374	0.003643	0.002008	0.001708	0.001833
0.1995	0.003693	0.003923	0.05162	0.008214	0.013559	0.003748	0.003688	0.002012	0.001708	0.001836
0.2	0.003685	0.00389	0.051796	0.008275	0.01361	0.003756	0.003733	0.002016	0.001708	0.001839
0.2005	0.003677	0.003857	0.051974	0.008337	0.01366	0.003764	0.003778	0.002021	0.001707	0.001843
0.201	0.003669	0.003825	0.052155	0.008399	0.013709	0.003772	0.003823	0.002025	0.001707	0.001846
0.2015	0.003662	0.003794	0.052338	0.008461	0.013757	0.00378	0.003868	0.002029	0.001706	0.001849
0.202	0.003655	0.003763	0.052524	0.008522	0.013804	0.003788	0.003914	0.002033	0.001705	0.001852
0.2025	0.003649	0.003732	0.052712	0.008584	0.01385	0.003796	0.003959	0.002038	0.001704	0.001856
0.203	0.003643	0.003702	0.052903	0.008646	0.013896	0.003804	0.004005	0.002042	0.001704	0.001859
0.2035	0.003637	0.003673	0.053096	0.008707	0.01394	0.003812	0.004051	0.002046	0.001703	0.001862
0.204	0.003632	0.003644	0.053292	0.008768	0.013983	0.00382	0.004098	0.00205	0.001702	0.001865
0.2045	0.003627	0.003615	0.053491	0.00883	0.014026	0.003828	0.004144	0.002055	0.001701	0.001869
0.205	0.003623	0.003587	0.053691	0.008891	0.014067	0.003836	0.00419	0.002059	0.0017	0.001872
0.2055	0.003619	0.003559	0.053895	0.008952	0.014108	0.003844	0.004237	0.002063	0.001699	0.001875
0.206	0.003616	0.003532	0.054101	0.009013	0.014148	0.003852	0.004284	0.002068	0.001697	0.001878
0.2065	0.003613	0.003506	0.05431	0.009074	0.014186	0.00386	0.00433	0.002072	0.001696	0.001882
0.207	0.00361	0.00348	0.054522	0.009134	0.014224	0.003868	0.004377	0.002077	0.001695	0.001885
0.2075	0.003608	0.003454	0.054736	0.009195	0.014261	0.003877	0.004424	0.002081	0.001694	0.001888
0.208	0.003607	0.00343	0.054953	0.009255	0.014297	0.003885	0.004471	0.002086	0.001692	0.001891
0.2085	0.003605	0.003405	0.055172	0.009315	0.014332	0.003894	0.004518	0.00209	0.001691	0.001894
0.209	0.003605	0.003381	0.055395	0.009375	0.014367	0.003903	0.004565	0.002094	0.001689	0.001898
0.2095	0.003605	0.003358	0.055619	0.009435	0.0144	0.003912	0.004613	0.002099	0.001687	0.001901
0.21	0.003605	0.003335	0.055847	0.009495	0.014433	0.003921	0.00466	0.002103	0.001686	0.001904
0.2105	0.003606	0.003313	0.056078	0.009554	0.014464	0.00393	0.004707	0.002108	0.001684	0.001907
0.211	0.003608	0.003292	0.056311	0.009613	0.014495	0.00394	0.004754	0.002112	0.001682	0.00191
0.2115	0.00361	0.003271	0.056547	0.009672	0.014526	0.00395	0.004801	0.002117	0.00168	0.001913
0.212	0.003612	0.00325	0.056786	0.009731	0.014555	0.00396	0.004848	0.002122	0.001678	0.001916
0.2125	0.003616	0.00323	0.057027	0.00979	0.014583	0.00397	0.004895	0.002126	0.001677	0.001919
0.213	0.003619	0.003211	0.057271	0.009848	0.014611	0.003981	0.004942	0.002131	0.001675	0.001922
0.2135	0.003624	0.003192	0.057518	0.009906	0.014638	0.003991	0.004989	0.002135	0.001673	0.001925
0.214	0.003628	0.003174	0.057768	0.009964	0.014664	0.004003	0.005036	0.00214	0.00167	0.001928
0.2145	0.003634	0.003156	0.058021	0.010022	0.01469	0.004014	0.005083	0.002144	0.001668	0.001931
0.215	0.00364	0.003139	0.058276	0.010079	0.014715	0.004026	0.00513	0.002149	0.001666	0.001934
0.2155	0.003647	0.003123	0.058534	0.010136	0.014739	0.004038	0.005176	0.002154	0.001664	0.001937
0.216	0.003654	0.003107	0.058795	0.010193	0.014762	0.00405	0.005223	0.002158	0.001662	0.00194
0.2165	0.003662	0.003091	0.059059	0.010249	0.014785	0.004063	0.005269	0.002163	0.001659	0.001942
0.217	0.00367	0.003077	0.059325	0.010305	0.014807	0.004076	0.005315	0.002167	0.001657	0.001945
0.2175	0.003679	0.003062	0.059594	0.010361	0.014828	0.00409	0.005361	0.002172	0.001655	0.001948
0.218	0.003689	0.003049	0.059866	0.010416	0.014849	0.004104	0.005407	0.002177	0.001652	0.001951
0.2185	0.003699	0.003036	0.060141	0.010472	0.014869	0.004118	0.005453	0.002181	0.00165	0.001953
0.219	0.00371	0.003023	0.060418	0.010526	0.014889	0.004133	0.005499	0.002186	0.001647	0.001956
0.2195	0.003722	0.003011	0.060699	0.010581	0.014908	0.004149	0.005544	0.00219	0.001645	0.001959
0.22	0.003734	0.003	0.060982	0.010635	0.014927	0.004165	0.005589	0.002195	0.001642	0.001961
0.2205	0.003747	0.002989	0.061267	0.010689	0.014945	0.004181	0.005634	0.0022	0.00164	0.001964
0.221	0.00376	0.002978	0.061555	0.010742	0.014963	0.004198	0.005679	0.002204	0.001637	0.001966
0.2215	0.003775	0.002969	0.061846	0.010795	0.01498	0.004215	0.005723	0.002209	0.001635	0.001969
0.222	0.00379	0.00296	0.06214	0.010848	0.014997	0.004233	0.005767	0.002214	0.001632	0.001971
0.2225	0.003805	0.002951	0.062436	0.0109	0.015013	0.004252	0.005811	0.002218	0.001629	0.001974
0.223	0.003821	0.002943	0.062735	0.010952	0.015029	0.004271	0.005855	0.002223	0.001627	0.001976
0.2235	0.003838	0.002935	0.063037	0.011004	0.015044	0.004291	0.005898	0.002227	0.001624	0.001978
0.224	0.003856	0.002928	0.063341	0.011055	0.01506	0.004311	0.005941	0.002232	0.001621	0.001981
0.2245	0.003874	0.002922	0.063648	0.011105	0.015075	0.004332	0.005984	0.002237	0.001619	0.001983
0.225	0.003893	0.002916	0.063957	0.011156	0.015089	0.004354	0.006026	0.002241	0.001616	0.001985
0.2255	0.003913	0.00291	0.064269	0.011206	0.015104	0.004376	0.006068	0.002246	0.001613	0.001987
0.226	0.003934	0.002905	0.064583	0.011255	0.015118	0.004399	0.00611	0.00225	0.00161	0.00199
0.2265	0.003955	0.002901	0.064899	0.011304	0.015132	0.004423	0.006151	0.002255	0.001608	0.001992
0.227	0.003977	0.002897	0.065219	0.011352	0.015146	0.004447	0.006192	0.002259	0.001605	0.001994
0.2275	0.003999	0.002893	0.06554	0.0114	0.015159	0.004472	0.006233	0.002264	0.001602	0.001996
0.228	0.004022	0.002891	0.065864	0.011448	0.015173	0.004498	0.006273	0.002269	0.0016	0.001998
0.2285	0.004046	0.002888	0.06619	0.011495	0.015186	0.004525	0.006313	0.002273	0.001597	0.002
0.229	0.004071	0.002886	0.066519	0.011542	0.015199	0.004552	0.006352	0.002278	0.001594	0.002002
0.2295	0.004097	0.002885	0.066849	0.011588	0.015212	0.00458	0.006391	0.002282	0.001591	0.002004
0.23	0.004123	0.002884	0.067182	0.011634	0.015226	0.00461	0.00643	0.002287	0.001589	0.002006
0.2305	0.00415	0.002883	0.067517	0.011679	0.015239	0.00464	0.006468	0.002291	0.001586	0.002008
0.231	0.004177	0.002883	0.067855	0.011724	0.015252	0.00467	0.006505	0.002296	0.001584	0.00201
0.2315	0.004206	0.002884	0.068194	0.011768	0.015265	0.004702	0.006543	0.0023	0.001581	0.002012
0.232	0.004235	0.002885	0.068536	0.011811	0.015279	0.004734	0.006579	0.002305	0.001578	0.002014
0.2325	0.004265	0.002886	0.068879	0.011855	0.015292	0.004768	0.006616	0.002309	0.001576	0.002016
0.233	0.004295	0.002888	0.069225	0.011897	0.015306	0.004802	0.006652	0.002314	0.001573	0.002017
0.2335	0.004327	0.00289	0.069572	0.011939	0.015319	0.004838	0.006687	0.002318	0.001571	0.002019
0.234	0.004359	0.002893	0.069921	0.011981	0.015333	0.004874	0.006722	0.002323	0.001568	0.002021
0.2345	0.004391	0.002896	0.070272	0.012022	0.015347	0.004911	0.006756	0.002327	0.001566	0.002023
0.235	0.004425	0.0029	0.070625	0.012063	0.015362	0.004949	0.00679	0.002331	0.001563	0.002025
0.2355	0.004459	0.002904	0.07098	0.012103	0.015376	0.004988	0.006823	0.002336	0.001561	0.002026
0.236	0.004494	0.002908	0.071336	0.012142	0.015391	0.005029	0.006856	0.00234	0.001559	0.002028
0.2365	0.00453	0.002913	0.071694	0.012181	0.015406	0.00507	0.006889	0.002345	0.001557	0.00203
0.237	0.004566	0.002918	0.072054	0.012219	0.015422	0.005112	0.00692	0.002349	0.001554	0.002032
0.2375	0.004603	0.002923	0.072414	0.012257	0.015438	0.005155	0.006951	0.002353	0.001552	0.002034
0.238	0.004641	0.002929	0.072777	0.012294	0.015454	0.0052	0.006982	0.002358	0.00155	0.002036
0.2385	0.00468	0.002936	0.073141	0.012331	0.015471	0.005245	0.007012	0.002362	0.001548	0.002037
0.239	0.004719	0.002942	0.073506	0.012367	0.015488	0.005292	0.007042	0.002366	0.001546	0.002039
0.2395	0.004759	0.002949	0.073872	0.012402	0.015506	0.005339	0.007071	0.002371	0.001544	0.002041
0.24	0.0048	0.002957	0.07424	0.012437	0.015524	0.005388	0.007099	0.002375	0.001542	0.002043
0.2405	0.004842	0.002964	0.074609	0.012471	0.015543	0.005438	0.007127	0.002379	0.00154	0.002045
0.241	0.004884	0.002972	0.074979	0.012505	0.015562	0.005489	0.007154	0.002384	0.001539	0.002047
0.2415	0.004927	0.002981	0.075349	0.012538	0.015582	0.005541	0.007181	0.002388	0.001537	0.002049
0.242	0.00497	0.002989	0.075721	0.01257	0.015602	0.005595	0.007207	0.002392	0.001535	0.002051
0.2425	0.005015	0.002998	0.076094	0.012602	0.015623	0.005649	0.007232	0.002396	0.001534	0.002053
0.243	0.00506	0.003008	0.076467	0.012634	0.015644	0.005705	0.007257	0.002401	0.001533	0.002055
0.2435	0.005106	0.003017	0.076842	0.012664	0.015666	0.005762	0.007282	0.002405	0.001531	0.002057
0.244	0.005152	0.003027	0.077216	0.012694	0.015689	0.00582	0.007305	0.002409	0.00153	0.002059
0.2445	0.005199	0.003037	0.077592	0.012724	0.015713	0.00588	0.007328	0.002413	0.001529	0.002062
0.245	0.005247	0.003048	0.077968	0.012753	0.015737	0.00594	0.007351	0.002417	0.001528	0.002064
0.2455	0.005295	0.003059	0.078344	0.012781	0.015762	0.006002	0.007373	0.002421	0.001527	0.002066
0.246	0.005344	0.003069	0.078721	0.012808	0.015788	0.006065	0.007394	0.002426	0.001526	0.002069
0.2465	0.005394	0.003081	0.079098	0.012835	0.015814	0.006129	0.007414	0.00243	0.001525	0.002071
0.247	0.005445	0.003092	0.079475	0.012862	0.015841	0.006195	0.007434	0.002434	0.001524	0.002074
0.2475	0.005496	0.003104	0.079853	0.012888	0.015869	0.006262	0.007454	0.002438	0.001524	0.002076
0.248	0.005547	0.003116	0.08023	0.012913	0.015898	0.00633	0.007472	0.002442	0.001523	0.002079
0.2485	0.0056	0.003128	0.080608	0.012937	0.015927	0.0064	0.00749	0.002446	0.001523	0.002082
0.249	0.005653	0.00314	0.080985	0.012961	0.015958	0.00647	0.007508	0.00245	0.001523	0.002085
0.2495	0.005706	0.003153	0.081362	0.012984	0.015989	0.006542	0.007525	0.002454	0.001522	0.002088
0.25	0.00576	0.003165	0.081739	0.013007	0.016021	0.006616	0.007541	0.002459	0.001522	0.002091
0.2505	0.005815	0.003178	0.082116	0.013029	0.016054	0.00669	0.007556	0.002463	0.001522	0.002094
0.251	0.005871	0.003191	0.082492	0.01305	0.016088	0.006766	0.007571	0.002467	0.001523	0.002098
0.2515	0.005926	0.003205	0.082868	0.013071	0.016122	0.006843	0.007586	0.002471	0.001523	0.002101
0.252	0.005983	0.003218	0.083243	0.013091	0.016158	0.006922	0.007599	0.002475	0.001523	0.002105
0.2525	0.00604	0.003232	0.083617	0.013111	0.016194	0.007002	0.007612	0.002479	0.001524	0.002109
0.253	0.006098	0.003246	0.083991	0.01313	0.016232	0.007083	0.007625	0.002483	0.001524	0.002113
0.2535	0.006156	0.003259	0.084363	0.013148	0.01627	0.007166	0.007637	0.002487	0.001525	0.002117
0.254	0.006215	0.003273	0.084735	0.013166	0.016309	0.007249	0.007648	0.002491	0.001526	0.002121
0.2545	0.006274	0.003288	0.085106	0.013183	0.016349	0.007335	0.007658	0.002495	0.001527	0.002125
0.255	0.006334	0.003302	0.085476	0.013199	0.01639	0.007421	0.007668	0.002499	0.001528	0.00213
0.2555	0.006394	0.003316	0.085844	0.013215	0.016432	0.007509	0.007677	0.002503	0.00153	0.002134
0.256	0.006455	0.003331	0.086211	0.01323	0.016475	0.007598	0.007686	0.002507	0.001531	0.002139
0.2565	0.006516	0.003345	0.086577	0.013245	0.016519	0.007688	0.007694	0.002511	0.001533	0.002144
0.257	0.006577	0.00336	0.086941	0.013259	0.016564	0.00778	0.007702	0.002515	0.001534	0.00215
0.2575	0.006639	0.003375	0.087304	0.013272	0.01661	0.007873	0.007709	0.002519	0.001536	0.002155
0.258	0.006702	0.00339	0.087665	0.013285	0.016657	0.007968	0.007715	0.002523	0.001538	0.002161
0.2585	0.006765	0.003405	0.088025	0.013297	0.016704	0.008063	0.00772	0.002527	0.00154	0.002166
0.259	0.006828	0.00342	0.088382	0.013309	0.016753	0.00816	0.007725	0.002531	0.001543	0.002172
0.2595	0.006892	0.003435	0.088738	0.01332	0.016802	0.008259	0.00773	0.002536	0.001545	0.002179
0.26	0.006956	0.00345	0.089092	0.013331	0.016853	0.008358	0.007734	0.00254	0.001548	0.002185
0.2605	0.007021	0.003465	0.089443	0.013341	0.016904	0.008459	0.007737	0.002544	0.00155	0.002192
0.261	0.007085	0.00348	0.089793	0.01335	0.016957	0.008561	0.00774	0.002548	0.001553	0.002199
0.2615	0.007151	0.003495	0.09014	0.013359	0.01701	0.008665	0.007742	0.002552	0.001556	0.002206
0.262	0.007216	0.00351	0.090485	0.013367	0.017064	0.008769	0.007743	0.002556	0.001559	0.002214
0.2625	0.007282	0.003526	0.090827	0.013375	0.017119	0.008875	0.007744	0.00256	0.001563	0.002221
0.263	0.007348	0.003541	0.091167	0.013382	0.017175	0.008982	0.007745	0.002564	0.001566	0.002229
0.2635	0.007414	0.003556	0.091504	0.013388	0.017232	0.009091	0.007745	0.002569	0.00157	0.002238
0.264	0.007481	0.003571	0.091839	0.013395	0.01729	0.009201	0.007744	0.002573	0.001574	0.002246
0.2645	0.007548	0.003586	0.092171	0.0134	0.017348	0.009311	0.007743	0.002577	0.001578	0.002255
0.265	0.007615	0.003602	0.0925	0.013405	0.017408	0.009423	0.007741	0.002581	0.001582	0.002264
0.2655	0.007682	0.003617	0.092826	0.01341	0.017468	0.009537	0.007739	0.002585	0.001586	0.002273
0.266	0.007749	0.003632	0.093149	0.013414	0.017529	0.009651	0.007736	0.00259	0.00159	0.002283
0.2665	0.007817	0.003647	0.093469	0.013417	0.017591	0.009767	0.007733	0.002594	0.001595	0.002293
0.267	0.007885	0.003662	0.093785	0.01342	0.017654	0.009883	0.007729	0.002598	0.0016	0.002304
0.2675	0.007953	0.003677	0.094099	0.013423	0.017717	0.010001	0.007724	0.002603	0.001605	0.002314
0.268	0.008021	0.003692	0.094409	0.013425	0.017782	0.01012	0.007719	0.002607	0.00161	0.002325
0.2685	0.008089	0.003707	0.094715	0.013427	0.017847	0.01024	0.007714	0.002612	0.001615	0.002337
0.269	0.008157	0.003722	0.095018	0.013428	0.017912	0.010361	0.007708	0.002616	0.00162	0.002348
0.2695	0.008225	0.003737	0.095318	0.013429	0.017979	0.010484	0.007702	0.002621	0.001626	0.00236
0.27	0.008293	0.003751	0.095614	0.013429	0.018046	0.010607	0.007695	0.002625	0.001631	0.002373
0.2705	0.008362	0.003766	0.095906	0.013429	0.018114	0.010731	0.007688	0.00263	0.001637	0.002385
0.271	0.00843	0.003781	0.096194	0.013428	0.018182	0.010856	0.00768	0.002634	0.001643	0.002399
0.2715	0.008498	0.003795	0.096478	0.013427	0.018252	0.010983	0.007672	0.002639	0.001649	0.002412
0.272	0.008566	0.003809	0.096759	0.013426	0.018321	0.01111	0.007664	0.002644	0.001656	0.002426
0.2725	0.008634	0.003824	0.097035	0.013424	0.018392	0.011238	0.007655	0.002648	0.001662	0.00244
0.273	0.008702	0.003838	0.097307	0.013422	0.018463	0.011367	0.007645	0.002653	0.001669	0.002455
0.2735	0.00877	0.003852	0.097575	0.01342	0.018534	0.011498	0.007635	0.002658	0.001676	0.00247
0.274	0.008838	0.003866	0.097839	0.013417	0.018606	0.011629	0.007625	0.002663	0.001683	0.002486
0.2745	0.008906	0.00388	0.098099	0.013414	0.018679	0.01176	0.007615	0.002668	0.00169	0.002501
0.275	0.008973	0.003893	0.098354	0.013411	0.018752	0.011893	0.007604	0.002673	0.001697	0.002518
0.2755	0.009041	0.003907	0.098605	0.013407	0.018825	0.012027	0.007592	0.002678	0.001704	0.002535
0.276	0.009108	0.00392	0.098851	0.013403	0.018899	0.012161	0.00758	0.002683	0.001712	0.002552
0.2765	0.009175	0.003934	0.099093	0.013399	0.018973	0.012296	0.007568	0.002688	0.00172	0.002569
0.277	0.009241	0.003947	0.09933	0.013394	0.019047	0.012432	0.007556	0.002693	0.001728	0.002587
0.2775	0.009308	0.00396	0.099562	0.01339	0.019122	0.012568	0.007543	0.002699	0.001736	0.002606
0.278	0.009374	0.003973	0.09979	0.013385	0.019197	0.012706	0.00753	0.002704	0.001744	0.002625
0.2785	0.009439	0.003986	0.100013	0.013379	0.019273	0.012844	0.007516	0.002709	0.001752	0.002644
0.279	0.009505	0.003998	0.100231	0.013374	0.019348	0.012982	0.007503	0.002715	0.001761	0.002664
0.2795	0.00957	0.004011	0.100444	0.013368	0.019424	0.013122	0.007489	0.00272	0.001769	0.002685
0.28	0.009634	0.004023	0.100652	0.013362	0.0195	0.013261	0.007474	0.002726	0.001778	0.002706
0.2805	0.009699	0.004035	0.100855	0.013356	0.019577	0.013402	0.00746	0.002732	0.001787	0.002727
0.281	0.009763	0.004047	0.101054	0.01335	0.019653	0.013543	0.007445	0.002738	0.001796	0.002749
0.2815	0.009826	0.004059	0.101247	0.013343	0.019729	0.013684	0.007429	0.002743	0.001806	0.002771
0.282	0.009889	0.00407	0.101435	0.013337	0.019806	0.013826	0.007414	0.002749	0.001815	0.002794
0.2825	0.009951	0.004081	0.101618	0.01333	0.019882	0.013968	0.007398	0.002755	0.001824	0.002817
0.283	0.010013	0.004093	0.101796	0.013323	0.019959	0.014111	0.007382	0.002761	0.001834	0.002841
0.2835	0.010074	0.004104	0.101969	0.013317	0.020035	0.014254	0.007366	0.002768	0.001844	0.002865
0.284	0.010135	0.004115	0.102136	0.01331	0.020111	0.014398	0.00735	0.002774	0.001854	0.00289
0.2845	0.010195	0.004125	0.102299	0.013303	0.020187	0.014542	0.007333	0.00278	0.001864	0.002915
0.285	0.010255	0.004136	0.102456	0.013296	0.020263	0.014686	0.007317	0.002787	0.001874	0.002941
0.2855	0.010314	0.004146	0.102607	0.013288	0.020339	0.01483	0.0073	0.002793	0.001885	0.002968
0.286	0.010372	0.004156	0.102753	0.013281	0.020415	0.014975	0.007283	0.0028	0.001895	0.002994
0.2865	0.01043	0.004166	0.102894	0.013274	0.02049	0.01512	0.007265	0.002806	0.001906	0.003022
0.287	0.010487	0.004176	0.10303	0.013267	0.020565	0.015265	0.007248	0.002813	0.001916	0.00305
0.2875	0.010543	0.004185	0.10316	0.01326	0.02064	0.01541	0.00723	0.00282	0.001927	0.003078
0.288	0.010599	0.004194	0.103285	0.013253	0.020714	0.015556	0.007213	0.002827	0.001938	0.003107
0.2885	0.010654	0.004203	0.103404	0.013246	0.020788	0.015701	0.007195	0.002834	0.001949	0.003137
0.289	0.010708	0.004212	0.103518	0.013239	0.020862	0.015846	0.007177	0.002841	0.001961	0.003167
0.2895	0.010761	0.004221	0.103627	0.013232	0.020935	0.015992	0.007159	0.002849	0.001972	0.003198
0.29	0.010813	0.004229	0.10373	0.013225	0.021007	0.016137	0.007141	0.002856	0.001984	0.003229
0.2905	0.010865	0.004237	0.103828	0.013218	0.021079	0.016283	0.007122	0.002864	0.001995	0.003261
0.291	0.010916	0.004245	0.10392	0.013211	0.021151	0.016428	0.007104	0.002871	0.002007	0.003293
0.2915	0.010965	0.004253	0.104007	0.013205	0.021221	0.016573	0.007086	0.002879	0.002019	0.003326
0.292	0.011014	0.004261	0.104088	0.013198	0.021292	0.016718	0.007067	0.002887	0.002031	0.003359
0.2925	0.011062	0.004268	0.104164	0.013192	0.021361	0.016863	0.007049	0.002895	0.002043	0.003393
0.293	0.011109	0.004275	0.104235	0.013186	0.02143	0.017008	0.00703	0.002903	0.002055	0.003428
0.2935	0.011156	0.004282	0.1043	0.01318	0.021498	0.017153	0.007012	0.002911	0.002067	0.003463
0.294	0.011201	0.004289	0.104359	0.013174	0.021565	0.017297	0.006993	0.00292	0.002079	0.003499
0.2945	0.011245	0.004295	0.104414	0.013168	0.021631	0.017441	0.006975	0.002928	0.002092	0.003535
0.295	0.011288	0.004301	0.104463	0.013163	0.021696	0.017584	0.006956	0.002937	0.002104	0.003571
0.2955	0.01133	0.004307	0.104506	0.013158	0.021761	0.017727	0.006938	0.002945	0.002117	0.003609
0.296	0.011371	0.004313	0.104544	0.013153	0.021824	0.01787	0.006919	0.002954	0.00213	0.003647
0.2965	0.011411	0.004319	0.104577	0.013148	0.021887	0.018013	0.006901	0.002963	0.002142	0.003685
0.297	0.01145	0.004324	0.104605	0.013143	0.021948	0.018154	0.006883	0.002972	0.002155	0.003724
0.2975	0.011488	0.004329	0.104627	0.013139	0.022009	0.018296	0.006864	0.002981	0.002168	0.003764
0.298	0.011525	0.004334	0.104645	0.013135	0.022068	0.018437	0.006846	0.002991	0.002181	0.003804
0.2985	0.011561	0.004338	0.104656	0.013131	0.022127	0.018577	0.006828	0.003	0.002194	0.003844
0.299	0.011595	0.004343	0.104663	0.013128	0.022184	0.018717	0.00681	0.00301	0.002207	0.003885
0.2995	0.011628	0.004347	0.104665	0.013124	0.02224	0.018856	0.006792	0.003019	0.002221	0.003927
0.3	0.011661	0.004351	0.104661	0.013122	0.022294	0.018994	0.006774	0.003029	0.002234	0.00397
0.3005	0.011692	0.004355	0.104653	0.013119	0.022348	0.019132	0.006756	0.003039	0.002247	0.004012
0.301	0.011721	0.004358	0.104639	0.013117	0.0224	0.019269	0.006739	0.003049	0.002261	0.004056
0.3015	0.01175	0.004361	0.104621	0.013115	0.022451	0.019405	0.006721	0.00306	0.002274	0.0041
0.302	0.011777	0.004364	0.104598	0.013113	0.0225	0.019541	0.006704	0.00307	0.002288	0.004144
0.3025	0.011803	0.004367	0.104569	0.013112	0.022548	0.019676	0.006687	0.003081	0.002301	0.004189
0.303	0.011828	0.00437	0.104536	0.013111	0.022595	0.01981	0.00667	0.003091	0.002315	0.004235
0.3035	0.011852	0.004372	0.104498	0.01311	0.02264	0.019943	0.006653	0.003102	0.002328	0.004281
0.304	0.011874	0.004374	0.104456	0.01311	0.022684	0.020075	0.006637	0.003113	0.002342	0.004327
0.3045	0.011895	0.004376	0.104408	0.01311	0.022726	0.020206	0.00662	0.003124	0.002356	0.004374
0.305	0.011915	0.004377	0.104357	0.01311	0.022766	0.020337	0.006604	0.003135	0.00237	0.004422
0.3055	0.011934	0.004379	0.1043	0.013111	0.022805	0.020466	0.006588	0.003147	0.002383	0.00447
0.306	0.011951	0.00438	0.104239	0.013112	0.022843	0.020594	0.006572	0.003158	0.002397	0.004519
0.3065	0.011967	0.004381	0.104174	0.013113	0.022879	0.020722	0.006557	0.00317	0.002411	0.004568
0.307	0.011981	0.004381	0.104104	0.013115	0.022913	0.020848	0.006541	0.003182	0.002425	0.004617
0.3075	0.011994	0.004382	0.10403	0.013117	0.022945	0.020973	0.006526	0.003194	0.002439	0.004668
0.308	0.012006	0.004382	0.103952	0.01312	0.022976	0.021098	0.006512	0.003206	0.002453	0.004718
0.3085	0.012017	0.004382	0.10387	0.013122	0.023005	0.021221	0.006497	0.003218	0.002467	0.004769
0.309	0.012026	0.004382	0.103783	0.013126	0.023032	0.021343	0.006483	0.003231	0.002481	0.004821
0.3095	0.012034	0.004381	0.103693	0.013129	0.023057	0.021464	0.006469	0.003243	0.002495	0.004873
0.31	0.01204	0.004381	0.103598	0.013133	0.023081	0.021583	0.006456	0.003256	0.002509	0.004925
0.3105	0.012045	0.00438	0.1035	0.013137	0.023102	0.021702	0.006442	0.003269	0.002523	0.004978
0.311	0.012049	0.004379	0.103398	0.013142	0.023122	0.021819	0.006429	0.003282	0.002537	0.005032
0.3115	0.012051	0.004377	0.103292	0.013147	0.02314	0.021935	0.006417	0.003295	0.002551	0.005086
0.312	0.012052	0.004376	0.103183	0.013152	0.023156	0.02205	0.006404	0.003308	0.002565	0.00514
0.3125	0.012052	0.004374	0.10307	0.013158	0.02317	0.022163	0.006393	0.003321	0.002579	0.005195
0.313	0.01205	0.004372	0.102953	0.013164	0.023182	0.022275	0.006381	0.003335	0.002593	0.00525
0.3135	0.012047	0.00437	0.102834	0.01317	0.023192	0.022386	0.00637	0.003349	0.002607	0.005306
0.314	0.012042	0.004367	0.102711	0.013177	0.0232	0.022496	0.006359	0.003363	0.002621	0.005362
0.3145	0.012037	0.004365	0.102584	0.013184	0.023206	0.022604	0.006348	0.003377	0.002634	0.005418
0.315	0.012029	0.004362	0.102455	0.013191	0.02321	0.022711	0.006338	0.003391	0.002648	0.005475
0.3155	0.012021	0.004359	0.102323	0.013199	0.023212	0.022817	0.006329	0.003405	0.002662	0.005532
0.316	0.012011	0.004356	0.102187	0.013206	0.023212	0.022921	0.006319	0.003419	0.002676	0.00559
0.3165	0.011999	0.004352	0.102049	0.013215	0.02321	0.023024	0.00631	0.003434	0.00269	0.005648
0.317	0.011987	0.004349	0.101908	0.013223	0.023206	0.023125	0.006302	0.003449	0.002704	0.005706
0.3175	0.011973	0.004345	0.101765	0.013232	0.023199	0.023225	0.006294	0.003463	0.002717	0.005765
0.318	0.011957	0.004341	0.101619	0.013241	0.02319	0.023324	0.006286	0.003478	0.002731	0.005824
0.3185	0.01194	0.004336	0.10147	0.01325	0.02318	0.023421	0.006279	0.003493	0.002745	0.005883
0.319	0.011922	0.004332	0.101319	0.013259	0.023167	0.023516	0.006273	0.003509	0.002758	0.005943
0.3195	0.011903	0.004327	0.101166	0.013269	0.023152	0.023611	0.006266	0.003524	0.002772	0.006003
0.32	0.011882	0.004322	0.101011	0.013279	0.023134	0.023703	0.006261	0.003539	0.002785	0.006063
0.3205	0.01186	0.004317	0.100854	0.013289	0.023115	0.023795	0.006255	0.003555	0.002799	0.006124
0.321	0.011837	0.004312	0.100694	0.013299	0.023093	0.023885	0.00625	0.003571	0.002812	0.006185
0.3215	0.011812	0.004306	0.100533	0.01331	0.023069	0.023973	0.006246	0.003587	0.002826	0.006246
0.322	0.011786	0.004301	0.10037	0.01332	0.023043	0.02406	0.006242	0.003603	0.002839	0.006308
0.3225	0.011759	0.004295	0.100206	0.013331	0.023015	0.024145	0.006239	0.003619	0.002852	0.00637
0.323	0.011731	0.004289	0.100039	0.013342	0.022984	0.024229	0.006236	0.003635	0.002865	0.006432
0.3235	0.011701	0.004283	0.099872	0.013353	0.022951	0.024312	0.006234	0.003652	0.002879	0.006494
0.324	0.01167	0.004276	0.099703	0.013364	0.022916	0.024393	0.006232	0.003668	0.002892	0.006557
0.3245	0.011638	0.00427	0.099533	0.013375	0.022878	0.024472	0.006231	0.003685	0.002905	0.006619
0.325	0.011604	0.004263	0.099361	0.013386	0.022839	0.024551	0.00623	0.003701	0.002917	0.006682
0.3255	0.01157	0.004256	0.099189	0.013398	0.022797	0.024627	0.00623	0.003718	0.00293	0.006746
0.326	0.011534	0.004249	0.099015	0.013409	0.022753	0.024702	0.00623	0.003735	0.002943	0.006809
0.3265	0.011497	0.004242	0.098841	0.01342	0.022706	0.024776	0.006231	0.003752	0.002956	0.006873
0.327	0.011459	0.004235	0.098666	0.013432	0.022657	0.024848	0.006232	0.003769	0.002968	0.006936
0.3275	0.01142	0.004227	0.098491	0.013443	0.022606	0.024919	0.006234	0.003787	0.002981	0.007
0.328	0.011379	0.004219	0.098314	0.013454	0.022553	0.024988	0.006237	0.003804	0.002993	0.007064
0.3285	0.011338	0.004211	0.098138	0.013465	0.022498	0.025056	0.00624	0.003822	0.003005	0.007129
0.329	0.011295	0.004203	0.097961	0.013477	0.02244	0.025122	0.006243	0.003839	0.003018	0.007193
0.3295	0.011251	0.004195	0.097784	0.013488	0.02238	0.025187	0.006248	0.003857	0.00303	0.007258
0.33	0.011207	0.004187	0.097607	0.013499	0.022318	0.02525	0.006252	0.003875	0.003042	0.007322
0.3305	0.011161	0.004178	0.097429	0.013509	0.022253	0.025312	0.006258	0.003892	0.003054	0.007387
0.331	0.011114	0.00417	0.097252	0.01352	0.022187	0.025373	0.006264	0.00391	0.003066	0.007452
0.3315	0.011066	0.004161	0.097075	0.01353	0.022118	0.025432	0.00627	0.003928	0.003077	0.007517
0.332	0.011018	0.004152	0.096898	0.01354	0.022047	0.02549	0.006277	0.003947	0.003089	0.007582
0.3325	0.010968	0.004143	0.096721	0.01355	0.021974	0.025546	0.006285	0.003965	0.0031	0.007647
0.333	0.010917	0.004134	0.096545	0.01356	0.021898	0.025601	0.006293	0.003983	0.003112	0.007712
0.3335	0.010866	0.004124	0.09637	0.01357	0.02182	0.025655	0.006302	0.004001	0.003123	0.007777
0.334	0.010813	0.004115	0.096195	0.013579	0.021741	0.025707	0.006312	0.00402	0.003134	0.007842
0.3345	0.01076	0.004105	0.096021	0.013588	0.021659	0.025758	0.006322	0.004038	0.003145	0.007907
0.335	0.010706	0.004095	0.095847	0.013596	0.021575	0.025808	0.006333	0.004057	0.003156	0.007972
0.3355	0.01065	0.004086	0.095675	0.013604	0.021488	0.025856	0.006344	0.004076	0.003167	0.008037
0.336	0.010595	0.004076	0.095504	0.013612	0.0214	0.025904	0.006356	0.004094	0.003178	0.008102
0.3365	0.010538	0.004065	0.095333	0.013619	0.02131	0.025949	0.006368	0.004113	0.003188	0.008167
0.337	0.01048	0.004055	0.095164	0.013626	0.021217	0.025994	0.006382	0.004132	0.003199	0.008232
0.3375	0.010422	0.004045	0.094996	0.013633	0.021123	0.026037	0.006395	0.004151	0.003209	0.008297
0.338	0.010363	0.004034	0.094829	0.013639	0.021026	0.026079	0.00641	0.00417	0.003219	0.008362
0.3385	0.010304	0.004024	0.094664	0.013644	0.020928	0.02612	0.006425	0.004189	0.003229	0.008427
0.339	0.010243	0.004013	0.0945	0.013649	0.020827	0.02616	0.00644	0.004208	0.003239	0.008492
0.3395	0.010182	0.004002	0.094338	0.013654	0.020724	0.026198	0.006456	0.004227	0.003249	0.008556
0.34	0.010121	0.003991	0.094177	0.013657	0.02062	0.026236	0.006473	0.004246	0.003259	0.008621
0.3405	0.010059	0.00398	0.094018	0.013661	0.020514	0.026272	0.006491	0.004265	0.003268	0.008685
0.341	0.009996	0.003969	0.093861	0.013663	0.020405	0.026307	0.006509	0.004284	0.003278	0.008749
0.3415	0.009932	0.003958	0.093706	0.013665	0.020295	0.026341	0.006527	0.004303	0.003287	0.008813
0.342	0.009869	0.003947	0.093552	0.013667	0.020183	0.026374	0.006547	0.004322	0.003296	0.008877
0.3425	0.009804	0.003935	0.093401	0.013668	0.020069	0.026406	0.006566	0.004342	0.003305	0.008941
0.343	0.009739	0.003924	0.093251	0.013668	0.019954	0.026437	0.006587	0.004361	0.003314	0.009004
0.3435	0.009674	0.003912	0.093104	0.013667	0.019836	0.026466	0.006608	0.00438	0.003322	0.009068
0.344	0.009608	0.003901	0.092959	0.013665	0.019717	0.026495	0.00663	0.004399	0.003331	0.009131
0.3445	0.009542	0.003889	0.092816	0.013663	0.019596	0.026523	0.006652	0.004419	0.003339	0.009194
0.345	0.009475	0.003877	0.092675	0.01366	0.019474	0.02655	0.006675	0.004438	0.003347	0.009257
0.3455	0.009408	0.003865	0.092537	0.013656	0.019349	0.026576	0.006698	0.004457	0.003356	0.009319
0.346	0.009341	0.003853	0.092401	0.013652	0.019224	0.026601	0.006722	0.004476	0.003363	0.009381
0.3465	0.009273	0.003841	0.092267	0.013646	0.019096	0.026625	0.006746	0.004496	0.003371	0.009443
0.347	0.009205	0.003829	0.092136	0.01364	0.018967	0.026649	0.006772	0.004515	0.003379	0.009505
0.3475	0.009137	0.003817	0.092007	0.013633	0.018837	0.026671	0.006797	0.004534	0.003386	0.009566
0.348	0.009068	0.003805	0.091881	0.013625	0.018705	0.026693	0.006824	0.004553	0.003394	0.009628
0.3485	0.009	0.003792	0.091757	0.013616	0.018571	0.026714	0.00685	0.004573	0.003401	0.009688
0.349	0.008931	0.00378	0.091636	0.013606	0.018436	0.026734	0.006878	0.004592	0.003408	0.009749
0.3495	0.008862	0.003768	0.091517	0.013595	0.0183	0.026753	0.006906	0.004611	0.003414	0.009809
0.35	0.008792	0.003755	0.091402	0.013583	0.018162	0.026772	0.006934	0.00463	0.003421	0.009869
0.3505	0.008723	0.003743	0.091288	0.01357	0.018023	0.02679	0.006963	0.004649	0.003428	0.009928
0.351	0.008654	0.00373	0.091178	0.013556	0.017883	0.026807	0.006993	0.004668	0.003434	0.009988
0.3515	0.008584	0.003717	0.09107	0.013541	0.017742	0.026824	0.007023	0.004687	0.00344	0.010046
0.352	0.008514	0.003705	0.090965	0.013525	0.017599	0.02684	0.007053	0.004706	0.003446	0.010105
0.3525	0.008445	0.003692	0.090862	0.013508	0.017455	0.026855	0.007084	0.004725	0.003452	0.010163
0.353	0.008375	0.003679	0.090763	0.01349	0.01731	0.02687	0.007116	0.004744	0.003457	0.01022
0.3535	0.008305	0.003666	0.090666	0.013471	0.017164	0.026884	0.007148	0.004762	0.003463	0.010277
0.354	0.008236	0.003654	0.090571	0.013451	0.017017	0.026898	0.00718	0.004781	0.003468	0.010334
0.3545	0.008166	0.003641	0.09048	0.013429	0.016869	0.026911	0.007213	0.0048	0.003473	0.01039
0.355	0.008096	0.003628	0.090391	0.013407	0.016719	0.026924	0.007247	0.004818	0.003478	0.010446
0.3555	0.008027	0.003615	0.090305	0.013383	0.016569	0.026936	0.007281	0.004837	0.003483	0.010502
0.356	0.007957	0.003602	0.090222	0.013359	0.016418	0.026948	0.007315	0.004855	0.003488	0.010557
0.3565	0.007888	0.003589	0.090141	0.013333	0.016267	0.026959	0.00735	0.004873	0.003492	0.010611
0.357	0.007819	0.003576	0.090063	0.013306	0.016114	0.02697	0.007385	0.004892	0.003496	0.010665
0.3575	0.00775	0.003563	0.089988	0.013277	0.01596	0.026981	0.007421	0.00491	0.0035	0.010718
0.358	0.007682	0.00355	0.089915	0.013248	0.015806	0.026991	0.007457	0.004928	0.003504	0.010771
0.3585	0.007613	0.003537	0.089845	0.013217	0.015651	0.027001	0.007493	0.004946	0.003508	0.010824
0.359	0.007545	0.003524	0.089777	0.013186	0.015496	0.027011	0.00753	0.004964	0.003511	0.010876
0.3595	0.007477	0.003511	0.089712	0.013153	0.01534	0.02702	0.007567	0.004981	0.003515	0.010927
0.36	0.007409	0.003498	0.08965	0.013118	0.015183	0.027029	0.007605	0.004999	0.003518	0.010978
0.3605	0.007342	0.003485	0.08959	0.013083	0.015026	0.027038	0.007643	0.005017	0.003521	0.011028
0.361	0.007275	0.003472	0.089532	0.013046	0.014868	0.027046	0.007681	0.005034	0.003523	0.011078
0.3615	0.007208	0.00346	0.089477	0.013009	0.01471	0.027054	0.007719	0.005052	0.003526	0.011127
0.362	0.007141	0.003447	0.089424	0.01297	0.014552	0.027062	0.007758	0.005069	0.003528	0.011176
0.3625	0.007075	0.003434	0.089374	0.012929	0.014393	0.02707	0.007797	0.005086	0.00353	0.011224
0.363	0.00701	0.003421	0.089325	0.012888	0.014233	0.027078	0.007837	0.005103	0.003532	0.011271
0.3635	0.006944	0.003408	0.089279	0.012845	0.014074	0.027086	0.007876	0.00512	0.003534	0.011318
0.364	0.006879	0.003395	0.089235	0.012801	0.013914	0.027093	0.007916	0.005136	0.003536	0.011364
0.3645	0.006815	0.003382	0.089193	0.012756	0.013754	0.0271	0.007956	0.005153	0.003537	0.01141
0.365	0.006751	0.003369	0.089153	0.01271	0.013594	0.027108	0.007997	0.00517	0.003539	0.011454
0.3655	0.006687	0.003357	0.089115	0.012662	0.013434	0.027115	0.008037	0.005186	0.00354	0.011499
0.366	0.006624	0.003344	0.089079	0.012613	0.013274	0.027122	0.008078	0.005202	0.00354	0.011542
0.3665	0.006562	0.003331	0.089044	0.012563	0.013114	0.027129	0.008119	0.005218	0.003541	0.011585
0.367	0.0065	0.003319	0.089011	0.012512	0.012954	0.027136	0.00816	0.005234	0.003542	0.011627
0.3675	0.006438	0.003306	0.08898	0.01246	0.012794	0.027143	0.008201	0.00525	0.003542	0.011669
0.368	0.006377	0.003294	0.08895	0.012406	0.012634	0.02715	0.008242	0.005265	0.003542	0.01171
0.3685	0.006316	0.003281	0.088922	0.012351	0.012474	0.027157	0.008284	0.005281	0.003542	0.01175
0.369	0.006257	0.003269	0.088895	0.012295	0.012315	0.027164	0.008325	0.005296	0.003542	0.011789
0.3695	0.006197	0.003257	0.088869	0.012238	0.012155	0.027171	0.008367	0.005311	0.003541	0.011828
0.37	0.006138	0.003244	0.088845	0.01218	0.011996	0.027178	0.008409	0.005326	0.00354	0.011866
0.3705	0.00608	0.003232	0.088821	0.01212	0.011838	0.027186	0.008451	0.005341	0.00354	0.011903
0.371	0.006023	0.00322	0.088798	0.01206	0.011679	0.027193	0.008492	0.005356	0.003538	0.01194
0.3715	0.005966	0.003208	0.088776	0.011998	0.011521	0.0272	0.008534	0.00537	0.003537	0.011975
0.372	0.005909	0.003196	0.088755	0.011935	0.011364	0.027208	0.008576	0.005385	0.003536	0.012011
0.3725	0.005854	0.003184	0.088735	0.011871	0.011207	0.027216	0.008618	0.005399	0.003534	0.012045
0.373	0.005798	0.003173	0.088715	0.011806	0.01105	0.027223	0.00866	0.005413	0.003532	0.012078
0.3735	0.005744	0.003161	0.088695	0.01174	0.010894	0.027231	0.008701	0.005427	0.00353	0.012111
0.374	0.00569	0.00315	0.088676	0.011673	0.010739	0.027239	0.008743	0.005441	0.003528	0.012143
0.3745	0.005637	0.003138	0.088657	0.011605	0.010584	0.027248	0.008784	0.005454	0.003525	0.012174
0.375	0.005585	0.003127	0.088638	0.011536	0.01043	0.027256	0.008826	0.005467	0.003523	0.012204
0.3755	0.005533	0.003116	0.088618	0.011465	0.010277	0.027264	0.008867	0.005481	0.00352	0.012234
0.376	0.005482	0.003105	0.088599	0.011394	0.010125	0.027273	0.008908	0.005493	0.003517	0.012263
0.3765	0.005432	0.003094	0.088579	0.011322	0.009973	0.027282	0.008949	0.005506	0.003514	0.01229
0.377	0.005382	0.003083	0.088559	0.011249	0.009822	0.027291	0.00899	0.005519	0.00351	0.012318
0.3775	0.005333	0.003072	0.088538	0.011174	0.009672	0.0273	0.009031	0.005531	0.003507	0.012344
0.378	0.005285	0.003062	0.088517	0.011099	0.009523	0.02731	0.009071	0.005544	0.003503	0.012369
0.3785	0.005238	0.003051	0.088494	0.011023	0.009375	0.027319	0.009111	0.005556	0.003499	0.012394
0.379	0.005191	0.003041	0.088471	0.010946	0.009227	0.027329	0.009151	0.005568	0.003495	0.012417
0.3795	0.005145	0.003031	0.088446	0.010869	0.009081	0.027339	0.009191	0.005579	0.00349	0.01244
0.38	0.0051	0.003021	0.088421	0.01079	0.008936	0.027349	0.00923	0.005591	0.003486	0.012462
0.3805	0.005055	0.003011	0.088393	0.010711	0.008792	0.02736	0.009269	0.005602	0.003481	0.012483
0.381	0.005012	0.003002	0.088365	0.01063	0.008649	0.027371	0.009308	0.005613	0.003476	0.012504
0.3815	0.004969	0.002992	0.088334	0.010549	0.008507	0.027382	0.009346	0.005624	0.003471	0.012523
0.382	0.004926	0.002983	0.088302	0.010468	0.008366	0.027393	0.009384	0.005635	0.003466	0.012541
0.3825	0.004885	0.002974	0.088268	0.010385	0.008227	0.027404	0.009422	0.005646	0.00346	0.012559
0.383	0.004844	0.002965	0.088232	0.010302	0.008088	0.027416	0.009459	0.005656	0.003454	0.012576
0.3835	0.004804	0.002956	0.088193	0.010218	0.007951	0.027428	0.009496	0.005666	0.003449	0.012592
0.384	0.004765	0.002948	0.088152	0.010133	0.007815	0.02744	0.009533	0.005676	0.003443	0.012606
0.3845	0.004727	0.002939	0.088109	0.010048	0.007681	0.027452	0.009568	0.005686	0.003436	0.01262
0.385	0.004689	0.002931	0.088063	0.009962	0.007548	0.027464	0.009604	0.005696	0.00343	0.012633
0.3855	0.004652	0.002923	0.088014	0.009876	0.007416	0.027477	0.009639	0.005705	0.003423	0.012646
0.386	0.004616	0.002915	0.087962	0.009789	0.007285	0.02749	0.009673	0.005715	0.003417	0.012657
0.3865	0.004581	0.002908	0.087907	0.009701	0.007156	0.027503	0.009707	0.005724	0.00341	0.012667
0.387	0.004546	0.0029	0.087848	0.009613	0.007029	0.027516	0.009741	0.005733	0.003403	0.012677
0.3875	0.004513	0.002893	0.087787	0.009525	0.006903	0.02753	0.009774	0.005742	0.003395	0.012685
0.388	0.00448	0.002886	0.087721	0.009436	0.006778	0.027544	0.009806	0.00575	0.003388	0.012693
0.3885	0.004447	0.00288	0.087653	0.009346	0.006655	0.027558	0.009838	0.005759	0.00338	0.012699
0.389	0.004416	0.002873	0.08758	0.009256	0.006533	0.027572	0.009869	0.005767	0.003372	0.012705
0.3895	0.004385	0.002867	0.087503	0.009166	0.006413	0.027586	0.0099	0.005775	0.003364	0.01271
0.39	0.004355	0.002861	0.087422	0.009075	0.006294	0.027601	0.009929	0.005783	0.003356	0.012713
0.3905	0.004326	0.002855	0.087337	0.008984	0.006177	0.027616	0.009959	0.00579	0.003348	0.012716
0.391	0.004298	0.00285	0.087248	0.008893	0.006062	0.027631	0.009987	0.005798	0.00334	0.012718
0.3915	0.00427	0.002845	0.087154	0.008802	0.005948	0.027646	0.010015	0.005805	0.003331	0.012719
0.392	0.004244	0.00284	0.087055	0.00871	0.005836	0.027661	0.010042	0.005813	0.003322	0.012719
0.3925	0.004217	0.002835	0.086952	0.008618	0.005726	0.027676	0.010069	0.00582	0.003313	0.012718
0.393	0.004192	0.00283	0.086844	0.008526	0.005617	0.027692	0.010095	0.005827	0.003304	0.012716
0.3935	0.004168	0.002826	0.08673	0.008433	0.005509	0.027708	0.01012	0.005833	0.003295	0.012713
0.394	0.004144	0.002822	0.086612	0.008341	0.005404	0.027724	0.010144	0.00584	0.003286	0.012709
0.3945	0.004121	0.002819	0.086488	0.008248	0.0053	0.02774	0.010168	0.005846	0.003276	0.012705
0.395	0.004098	0.002815	0.086359	0.008155	0.005198	0.027756	0.01019	0.005852	0.003266	0.012699
0.3955	0.004077	0.002812	0.086224	0.008063	0.005098	0.027772	0.010212	0.005859	0.003257	0.012692
0.396	0.004056	0.002809	0.086084	0.00797	0.004999	0.027789	0.010233	0.005865	0.003247	0.012685
0.3965	0.004036	0.002807	0.085937	0.007877	0.004902	0.027805	0.010254	0.00587	0.003237	0.012676
0.397	0.004017	0.002805	0.085785	0.007784	0.004807	0.027822	0.010273	0.005876	0.003226	0.012667
0.3975	0.003998	0.002803	0.085627	0.007692	0.004713	0.027838	0.010292	0.005881	0.003216	0.012656
0.398	0.00398	0.002801	0.085463	0.007599	0.004622	0.027855	0.01031	0.005887	0.003205	0.012645
0.3985	0.003963	0.0028	0.085292	0.007506	0.004532	0.027872	0.010327	0.005892	0.003195	0.012632
0.399	0.003946	0.002799	0.085115	0.007414	0.004444	0.027889	0.010343	0.005897	0.003184	0.012619
0.3995	0.003931	0.002798	0.084932	0.007321	0.004357	0.027906	0.010358	0.005902	0.003173	0.012605
0.4	0.003915	0.002798	0.084742	0.007229	0.004273	0.027923	0.010373	0.005907	0.003162	0.012589
0.4005	0.003901	0.002797	0.084546	0.007137	0.00419	0.02794	0.010386	0.005912	0.003151	0.012573
0.401	0.003887	0.002798	0.084342	0.007046	0.004109	0.027957	0.010399	0.005916	0.00314	0.012556
0.4015	0.003874	0.002798	0.084132	0.006954	0.00403	0.027974	0.01041	0.005921	0.003128	0.012538
0.402	0.003862	0.002799	0.083916	0.006863	0.003952	0.027992	0.010421	0.005925	0.003117	0.012519
0.4025	0.003851	0.0028	0.083692	0.006772	0.003877	0.028009	0.010431	0.005929	0.003105	0.012499
0.403	0.00384	0.002802	0.083461	0.006682	0.003803	0.028026	0.01044	0.005933	0.003094	0.012478
0.4035	0.003829	0.002803	0.083223	0.006591	0.003731	0.028043	0.010447	0.005937	0.003082	0.012457
0.404	0.00382	0.002806	0.082978	0.006502	0.00366	0.02806	0.010454	0.005941	0.00307	0.012434
0.4045	0.003811	0.002808	0.082725	0.006412	0.003592	0.028077	0.01046	0.005945	0.003058	0.012411
0.405	0.003803	0.002811	0.082465	0.006323	0.003525	0.028094	0.010466	0.005949	0.003046	0.012386
0.4055	0.003795	0.002814	0.082198	0.006234	0.00346	0.028111	0.01047	0.005952	0.003034	0.012361
0.406	0.003788	0.002817	0.081924	0.006146	0.003397	0.028128	0.010473	0.005956	0.003021	0.012334
0.4065	0.003782	0.002821	0.081642	0.006059	0.003336	0.028145	0.010475	0.005959	0.003009	0.012307
0.407	0.003776	0.002825	0.081352	0.005972	0.003276	0.028162	0.010476	0.005963	0.002997	0.012279
0.4075	0.003771	0.00283	0.081055	0.005885	0.003218	0.028178	0.010476	0.005966	0.002984	0.01225
0.408	0.003766	0.002834	0.08075	0.005799	0.003162	0.028195	0.010476	0.005969	0.002972	0.01222
0.4085	0.003763	0.00284	0.080438	0.005713	0.003107	0.028211	0.010474	0.005972	0.002959	0.01219
0.409	0.003759	0.002845	0.080118	0.005628	0.003054	0.028227	0.010471	0.005975	0.002946	0.012158
0.4095	0.003757	0.002851	0.079791	0.005544	0.003003	0.028244	0.010467	0.005978	0.002933	0.012126
0.41	0.003755	0.002857	0.079455	0.00546	0.002954	0.02826	0.010463	0.005981	0.00292	0.012093
0.4105	0.003753	0.002863	0.079112	0.005377	0.002906	0.028275	0.010457	0.005984	0.002907	0.012058
0.411	0.003753	0.00287	0.078762	0.005295	0.00286	0.028291	0.01045	0.005987	0.002894	0.012024
0.4115	0.003752	0.002877	0.078403	0.005213	0.002816	0.028307	0.010443	0.00599	0.002881	0.011988
0.412	0.003753	0.002885	0.078037	0.005132	0.002773	0.028322	0.010434	0.005992	0.002868	0.011951
0.4125	0.003754	0.002893	0.077663	0.005052	0.002732	0.028337	0.010424	0.005995	0.002855	0.011914
0.413	0.003755	0.002901	0.077282	0.004973	0.002693	0.028352	0.010414	0.005998	0.002842	0.011876
0.4135	0.003757	0.002909	0.076892	0.004894	0.002655	0.028367	0.010402	0.006	0.002828	0.011837
0.414	0.00376	0.002918	0.076496	0.004816	0.002619	0.028381	0.01039	0.006003	0.002815	0.011797
0.4145	0.003763	0.002927	0.076091	0.004739	0.002584	0.028395	0.010376	0.006006	0.002802	0.011756
0.415	0.003767	0.002937	0.075679	0.004662	0.002551	0.028409	0.010362	0.006008	0.002788	0.011715
0.4155	0.003771	0.002946	0.075259	0.004586	0.00252	0.028423	0.010346	0.006011	0.002775	0.011673
0.416	0.003776	0.002957	0.074832	0.004512	0.00249	0.028436	0.01033	0.006013	0.002761	0.01163
0.4165	0.003781	0.002967	0.074397	0.004438	0.002462	0.028449	0.010312	0.006016	0.002748	0.011587
0.417	0.003787	0.002978	0.073955	0.004365	0.002435	0.028462	0.010294	0.006018	0.002734	0.011542
0.4175	0.003793	0.002989	0.073506	0.004292	0.002409	0.028475	0.010275	0.00602	0.002721	0.011497
0.418	0.0038	0.003001	0.073049	0.004221	0.002385	0.028487	0.010255	0.006023	0.002707	0.011452
0.4185	0.003808	0.003012	0.072585	0.00415	0.002363	0.028499	0.010234	0.006025	0.002693	0.011405
0.419	0.003816	0.003024	0.072113	0.004081	0.002342	0.02851	0.010212	0.006028	0.00268	0.011358
0.4195	0.003824	0.003037	0.071635	0.004012	0.002322	0.028522	0.010189	0.00603	0.002666	0.011311
0.42	0.003833	0.00305	0.071149	0.003944	0.002303	0.028532	0.010165	0.006033	0.002652	0.011262
0.4205	0.003842	0.003063	0.070657	0.003877	0.002286	0.028543	0.01014	0.006035	0.002639	0.011213
0.421	0.003852	0.003076	0.070157	0.003811	0.002271	0.028553	0.010114	0.006038	0.002625	0.011163
0.4215	0.003863	0.00309	0.069651	0.003746	0.002256	0.028563	0.010088	0.006041	0.002611	0.011113
0.422	0.003873	0.003104	0.069138	0.003682	0.002243	0.028572	0.010061	0.006043	0.002597	0.011062
0.4225	0.003885	0.003118	0.068619	0.003619	0.002232	0.028581	0.010032	0.006046	0.002584	0.01101
0.423	0.003897	0.003132	0.068092	0.003557	0.002221	0.02859	0.010003	0.006048	0.00257	0.010958
0.4235	0.003909	0.003147	0.06756	0.003496	0.002212	0.028598	0.009973	0.006051	0.002556	0.010906
0.424	0.003922	0.003162	0.067021	0.003436	0.002204	0.028606	0.009943	0.006054	0.002543	0.010852
0.4245	0.003935	0.003178	0.066476	0.003377	0.002197	0.028613	0.009911	0.006057	0.002529	0.010798
0.425	0.003948	0.003194	0.065925	0.003319	0.002191	0.02862	0.009879	0.00606	0.002515	0.010744
0.4255	0.003963	0.00321	0.065368	0.003261	0.002187	0.028626	0.009846	0.006062	0.002502	0.010689
0.426	0.003977	0.003226	0.064805	0.003205	0.002183	0.028632	0.009812	0.006065	0.002488	0.010634
0.4265	0.003992	0.003242	0.064237	0.00315	0.002181	0.028637	0.009777	0.006068	0.002475	0.010578
0.427	0.004007	0.003259	0.063662	0.003096	0.00218	0.028642	0.009742	0.006071	0.002461	0.010521
0.4275	0.004023	0.003276	0.063083	0.003043	0.002179	0.028647	0.009706	0.006075	0.002447	0.010464
0.428	0.00404	0.003293	0.062498	0.00299	0.00218	0.028651	0.009669	0.006078	0.002434	0.010407
0.4285	0.004056	0.003311	0.061908	0.002939	0.002182	0.028654	0.009631	0.006081	0.00242	0.010349
0.429	0.004073	0.003329	0.061313	0.002889	0.002185	0.028657	0.009593	0.006084	0.002407	0.010291
0.4295	0.004091	0.003347	0.060713	0.00284	0.002189	0.028659	0.009554	0.006088	0.002393	0.010232
0.43	0.004109	0.003365	0.060108	0.002792	0.002193	0.028661	0.009514	0.006091	0.00238	0.010173
0.4305	0.004127	0.003384	0.059498	0.002745	0.002199	0.028663	0.009474	0.006095	0.002367	0.010113
0.431	0.004146	0.003402	0.058885	0.002699	0.002205	0.028663	0.009433	0.006099	0.002353	0.010053
0.4315	0.004165	0.003421	0.058267	0.002654	0.002212	0.028663	0.009391	0.006102	0.00234	0.009993
0.432	0.004184	0.00344	0.057644	0.002609	0.00222	0.028663	0.009349	0.006106	0.002327	0.009932
0.4325	0.004204	0.00346	0.057018	0.002566	0.002229	0.028662	0.009307	0.00611	0.002314	0.009871
0.433	0.004225	0.003479	0.056388	0.002524	0.002239	0.028661	0.009263	0.006114	0.002301	0.00981
0.4335	0.004245	0.003499	0.055755	0.002483	0.002249	0.028658	0.009219	0.006119	0.002288	0.009748
0.434	0.004266	0.003519	0.055118	0.002443	0.00226	0.028656	0.009175	0.006123	0.002275	0.009686
0.4345	0.004288	0.003539	0.054477	0.002404	0.002272	0.028652	0.00913	0.006127	0.002262	0.009624
0.435	0.00431	0.003559	0.053834	0.002366	0.002285	0.028648	0.009084	0.006132	0.002249	0.009562
0.4355	0.004332	0.003579	0.053188	0.002329	0.002298	0.028644	0.009038	0.006136	0.002236	0.009499
0.436	0.004354	0.0036	0.052538	0.002293	0.002311	0.028639	0.008992	0.006141	0.002223	0.009436
0.4365	0.004377	0.003621	0.051887	0.002258	0.002326	0.028633	0.008945	0.006146	0.00221	0.009373
0.437	0.0044	0.003642	0.051233	0.002224	0.002341	0.028626	0.008898	0.006151	0.002198	0.009309
0.4375	0.004424	0.003663	0.050576	0.002191	0.002356	0.028619	0.00885	0.006156	0.002185	0.009246
0.438	0.004448	0.003684	0.049918	0.002158	0.002372	0.028611	0.008801	0.006161	0.002173	0.009182
0.4385	0.004472	0.003705	0.049257	0.002127	0.002389	0.028603	0.008753	0.006166	0.00216	0.009118
0.439	0.004497	0.003726	0.048595	0.002097	0.002406	0.028594	0.008704	0.006172	0.002148	0.009054
0.4395	0.004522	0.003748	0.047932	0.002068	0.002423	0.028584	0.008654	0.006177	0.002136	0.008989
0.44	0.004547	0.003769	0.047267	0.002039	0.002441	0.028574	0.008605	0.006183	0.002123	0.008925
0.4405	0.004573	0.003791	0.0466	0.002012	0.002459	0.028563	0.008555	0.006189	0.002111	0.00886
0.441	0.004599	0.003813	0.045933	0.001985	0.002478	0.028551	0.008504	0.006195	0.002099	0.008796
0.4415	0.004625	0.003835	0.045265	0.001959	0.002497	0.028538	0.008454	0.006201	0.002087	0.008731
0.442	0.004651	0.003857	0.044597	0.001935	0.002516	0.028525	0.008403	0.006207	0.002075	0.008666
0.4425	0.004678	0.003879	0.043928	0.001911	0.002536	0.028511	0.008351	0.006213	0.002063	0.008601
0.443	0.004705	0.003901	0.043259	0.001888	0.002556	0.028496	0.0083	0.00622	0.002052	0.008536
0.4435	0.004733	0.003923	0.04259	0.001866	0.002576	0.028481	0.008248	0.006227	0.00204	0.008471
0.444	0.004761	0.003945	0.04192	0.001845	0.002596	0.028465	0.008196	0.006233	0.002028	0.008406
0.4445	0.004789	0.003967	0.041252	0.001824	0.002617	0.028448	0.008144	0.00624	0.002017	0.008341
0.445	0.004817	0.003989	0.040583	0.001805	0.002638	0.028431	0.008092	0.006247	0.002006	0.008276
0.4455	0.004846	0.004011	0.039915	0.001786	0.002659	0.028413	0.008039	0.006255	0.001994	0.008211
0.446	0.004875	0.004034	0.039248	0.001768	0.00268	0.028394	0.007987	0.006262	0.001983	0.008146
0.4465	0.004904	0.004056	0.038583	0.001751	0.002701	0.028374	0.007934	0.00627	0.001972	0.008081
0.447	0.004933	0.004078	0.037918	0.001735	0.002723	0.028354	0.007881	0.006277	0.001961	0.008016
0.4475	0.004963	0.0041	0.037255	0.00172	0.002744	0.028332	0.007828	0.006285	0.00195	0.007952
0.448	0.004993	0.004123	0.036593	0.001705	0.002766	0.028311	0.007775	0.006293	0.001939	0.007887
0.4485	0.005023	0.004145	0.035933	0.001691	0.002787	0.028288	0.007722	0.006301	0.001929	0.007822
0.449	0.005054	0.004167	0.035275	0.001678	0.002809	0.028265	0.007669	0.00631	0.001918	0.007758
0.4495	0.005084	0.004189	0.034618	0.001666	0.002831	0.02824	0.007616	0.006318	0.001907	0.007694
0.45	0.005115	0.004211	0.033964	0.001654	0.002853	0.028216	0.007563	0.006327	0.001897	0.007629
0.4505	0.005146	0.004233	0.033313	0.001643	0.002874	0.02819	0.007509	0.006336	0.001887	0.007565
0.451	0.005178	0.004255	0.032664	0.001633	0.002896	0.028163	0.007456	0.006344	0.001877	0.007502
0.4515	0.00521	0.004277	0.032018	0.001624	0.002918	0.028136	0.007403	0.006354	0.001866	0.007438
0.452	0.005241	0.004299	0.031375	0.001615	0.002939	0.028108	0.00735	0.006363	0.001856	0.007374
0.4525	0.005273	0.004321	0.030734	0.001607	0.00296	0.02808	0.007297	0.006372	0.001847	0.007311
0.453	0.005306	0.004342	0.030097	0.001599	0.002982	0.02805	0.007244	0.006382	0.001837	0.007248
0.4535	0.005338	0.004364	0.029464	0.001592	0.003003	0.02802	0.007191	0.006392	0.001827	0.007185
0.454	0.005371	0.004386	0.028833	0.001586	0.003024	0.027989	0.007138	0.006402	0.001818	0.007123
0.4545	0.005404	0.004407	0.028207	0.001581	0.003045	0.027958	0.007085	0.006412	0.001808	0.00706
0.455	0.005437	0.004428	0.027584	0.001576	0.003066	0.027925	0.007033	0.006422	0.001799	0.006998
0.4555	0.00547	0.004449	0.026965	0.001572	0.003086	0.027892	0.00698	0.006432	0.00179	0.006936
0.456	0.005503	0.004471	0.026351	0.001568	0.003106	0.027858	0.006928	0.006443	0.00178	0.006875
0.4565	0.005537	0.004491	0.02574	0.001565	0.003126	0.027823	0.006876	0.006454	0.001771	0.006814
0.457	0.005571	0.004512	0.025135	0.001562	0.003146	0.027788	0.006824	0.006465	0.001763	0.006753
0.4575	0.005605	0.004533	0.024533	0.00156	0.003166	0.027752	0.006772	0.006476	0.001754	0.006692
0.458	0.005639	0.004554	0.023936	0.001559	0.003185	0.027715	0.006721	0.006487	0.001745	0.006632
0.4585	0.005673	0.004574	0.023344	0.001558	0.003204	0.027677	0.006669	0.006499	0.001737	0.006572
0.459	0.005707	0.004594	0.022757	0.001557	0.003223	0.027638	0.006618	0.00651	0.001728	0.006512
0.4595	0.005742	0.004614	0.022175	0.001557	0.003242	0.027599	0.006567	0.006522	0.00172	0.006453
0.46	0.005776	0.004634	0.021598	0.001558	0.00326	0.027559	0.006517	0.006534	0.001712	0.006394
0.4605	0.005811	0.004654	0.021027	0.001559	0.003278	0.027519	0.006466	0.006546	0.001704	0.006336
0.461	0.005846	0.004674	0.020461	0.00156	0.003295	0.027477	0.006416	0.006558	0.001696	0.006278
0.4615	0.00588	0.004693	0.0199	0.001562	0.003312	0.027435	0.006366	0.006571	0.001688	0.00622
0.462	0.005915	0.004713	0.019345	0.001564	0.003329	0.027392	0.006317	0.006583	0.00168	0.006163
0.4625	0.00595	0.004732	0.018796	0.001567	0.003346	0.027348	0.006268	0.006596	0.001672	0.006106
0.463	0.005986	0.004751	0.018252	0.00157	0.003362	0.027304	0.006219	0.006609	0.001665	0.00605
0.4635	0.006021	0.00477	0.017715	0.001573	0.003377	0.027259	0.00617	0.006622	0.001657	0.005994
0.464	0.006056	0.004788	0.017184	0.001577	0.003393	0.027213	0.006122	0.006635	0.00165	0.005938
0.4645	0.006091	0.004807	0.016658	0.001581	0.003408	0.027166	0.006074	0.006649	0.001643	0.005883
0.465	0.006127	0.004825	0.016139	0.001586	0.003422	0.027119	0.006027	0.006662	0.001636	0.005829
0.4655	0.006162	0.004843	0.015626	0.001591	0.003436	0.027071	0.005979	0.006676	0.001629	0.005774
0.466	0.006198	0.004861	0.01512	0.001596	0.00345	0.027022	0.005933	0.00669	0.001622	0.005721
0.4665	0.006233	0.004879	0.01462	0.001602	0.003463	0.026973	0.005886	0.006704	0.001616	0.005668
0.467	0.006269	0.004896	0.014127	0.001608	0.003476	0.026922	0.00584	0.006718	0.001609	0.005615
0.4675	0.006304	0.004914	0.01364	0.001614	0.003488	0.026872	0.005794	0.006733	0.001603	0.005563
0.468	0.00634	0.004931	0.01316	0.00162	0.0035	0.02682	0.005749	0.006747	0.001596	0.005511
0.4685	0.006375	0.004948	0.012687	0.001627	0.003512	0.026768	0.005704	0.006762	0.00159	0.00546
0.469	0.006411	0.004965	0.01222	0.001634	0.003523	0.026715	0.00566	0.006777	0.001584	0.005409
0.4695	0.006446	0.004981	0.011761	0.001641	0.003533	0.026661	0.005616	0.006792	0.001578	0.005359
0.47	0.006481	0.004998	0.011308	0.001648	0.003543	0.026607	0.005572	0.006807	0.001572	0.00531
0.4705	0.006517	0.005014	0.010862	0.001656	0.003553	0.026551	0.005529	0.006822	0.001567	0.005261
0.471	0.006552	0.005031	0.010424	0.001664	0.003562	0.026496	0.005486	0.006837	0.001561	0.005212
0.4715	0.006587	0.005047	0.009992	0.001672	0.00357	0.026439	0.005444	0.006853	0.001556	0.005164
0.472	0.006623	0.005062	0.009568	0.00168	0.003579	0.026382	0.005402	0.006869	0.00155	0.005117
0.4725	0.006658	0.005078	0.009151	0.001688	0.003586	0.026324	0.00536	0.006884	0.001545	0.00507
0.473	0.006693	0.005094	0.008741	0.001697	0.003593	0.026266	0.005319	0.0069	0.00154	0.005024
0.4735	0.006728	0.005109	0.008338	0.001705	0.0036	0.026207	0.005279	0.006917	0.001535	0.004978
0.474	0.006763	0.005124	0.007943	0.001714	0.003606	0.026147	0.005238	0.006933	0.00153	0.004933
0.4745	0.006798	0.00514	0.007555	0.001723	0.003612	0.026086	0.005199	0.006949	0.001525	0.004889
0.475	0.006833	0.005155	0.007174	0.001732	0.003617	0.026025	0.00516	0.006966	0.001521	0.004845
0.4755	0.006867	0.005169	0.006801	0.001741	0.003622	0.025963	0.005121	0.006982	0.001516	0.004801
0.476	0.006902	0.005184	0.006435	0.001751	0.003626	0.025901	0.005083	0.006999	0.001512	0.004759
0.4765	0.006936	0.005199	0.006076	0.00176	0.00363	0.025838	0.005045	0.007016	0.001508	0.004716
0.477	0.00697	0.005213	0.005725	0.001769	0.003633	0.025774	0.005007	0.007033	0.001503	0.004675
0.4775	0.007004	0.005228	0.005381	0.001779	0.003635	0.02571	0.00497	0.00705	0.001499	0.004634
0.478	0.007038	0.005242	0.005044	0.001788	0.003638	0.025644	0.004934	0.007067	0.001495	0.004594
0.4785	0.007072	0.005257	0.004715	0.001798	0.003639	0.025579	0.004898	0.007084	0.001492	0.004554
0.479	0.007106	0.005271	0.004394	0.001807	0.003641	0.025512	0.004863	0.007101	0.001488	0.004515
0.4795	0.007139	0.005285	0.004079	0.001817	0.003641	0.025445	0.004828	0.007119	0.001484	0.004476
0.48	0.007172	0.005299	0.003773	0.001827	0.003641	0.025378	0.004793	0.007136	0.001481	0.004438
0.4805	0.007205	0.005313	0.003473	0.001836	0.003641	0.025309	0.004759	0.007154	0.001477	0.004401
0.481	0.007238	0.005327	0.003181	0.001846	0.00364	0.02524	0.004726	0.007172	0.001474	0.004364
0.4815	0.007271	0.005341	0.002896	0.001855	0.003639	0.025171	0.004692	0.007189	0.001471	0.004328
0.482	0.007303	0.005355	0.002619	0.001865	0.003637	0.025101	0.00466	0.007207	0.001468	0.004292
0.4825	0.007335	0.00537	0.002349	0.001875	0.003635	0.02503	0.004628	0.007225	0.001465	0.004257
0.483	0.007367	0.005384	0.002086	0.001884	0.003633	0.024958	0.004596	0.007243	0.001462	0.004223
0.4835	0.007399	0.005398	0.00183	0.001894	0.003629	0.024886	0.004565	0.007261	0.001459	0.004189
0.484	0.00743	0.005412	0.001582	0.001903	0.003626	0.024813	0.004534	0.007279	0.001457	0.004156
0.4845	0.007461	0.005426	0.001341	0.001913	0.003622	0.02474	0.004504	0.007297	0.001454	0.004124
0.485	0.007492	0.00544	0.001107	0.001922	0.003617	0.024666	0.004474	0.007315	0.001452	0.004092
0.4855	0.007523	0.005455	0.00088	0.001931	0.003612	0.024591	0.004445	0.007334	0.00145	0.004061
0.486	0.007554	0.005469	0.00066	0.001941	0.003607	0.024516	0.004416	0.007352	0.001447	0.00403
0.4865	0.007584	0.005484	0.000447	0.00195	0.003601	0.02444	0.004387	0.00737	0.001445	0.004
0.487	0.007614	0.005499	0.000242	0.001959	0.003594	0.024364	0.004359	0.007388	0.001443	0.003971
0.4875	0.007643	0.005513	4.3e-05	0.001968	0.003588	0.024287	0.004332	0.007407	0.001442	0.003942
0.488	0.007672	0.005528	-0.000149	0.001977	0.00358	0.024209	0.004305	0.007425	0.00144	0.003913
0.4885	0.007701	0.005544	-0.000334	0.001985	0.003573	0.02413	0.004278	0.007443	0.001438	0.003886
0.489	0.00773	0.005559	-0.000513	0.001994	0.003565	0.024051	0.004252	0.007462	0.001437	0.003859
0.4895	0.007758	0.005575	-0.000684	0.002003	0.003556	0.023971	0.004226	0.00748	0.001435	0.003832
0.49	0.007786	0.005591	-0.000849	0.002011	0.003547	0.023891	0.0042	0.007498	0.001434	0.003806
0.4905	0.007814	0.005607	-0.001008	0.002019	0.003538	0.02381	0.004176	0.007516	0.001432	0.003781
0.491	0.007841	0.005623	-0.001159	0.002027	0.003528	0.023729	0.004151	0.007535	0.001431	0.003756
0.4915	0.007868	0.00564	-0.001305	0.002035	0.003518	0.023646	0.004127	0.007553	0.00143	0.003732
0.492	0.007895	0.005657	-0.001444	0.002043	0.003508	0.023563	0.004103	0.007571	0.001429	0.003709
0.4925	0.007921	0.005674	-0.001576	0.002051	0.003497	0.02348	0.00408	0.007589	0.001428	0.003686
0.493	0.007947	0.005692	-0.001703	0.002059	0.003486	0.023396	0.004057	0.007607	0.001428	0.003663
0.4935	0.007973	0.00571	-0.001823	0.002066	0.003474	0.023311	0.004035	0.007625	0.001427	0.003641
0.494	0.007998	0.005728	-0.001937	0.002073	0.003462	0.023225	0.004013	0.007643	0.001426	0.00362
0.4945	0.008023	0.005747	-0.002045	0.00208	0.00345	0.023139	0.003991	0.007661	0.001426	0.003599
0.495	0.008048	0.005766	-0.002147	0.002087	0.003437	0.023052	0.00397	0.007678	0.001425	0.003579
0.4955	0.008072	0.005786	-0.002243	0.002094	0.003424	0.022965	0.003949	0.007696	0.001425	0.003559
0.496	0.008096	0.005806	-0.002333	0.002101	0.00341	0.022877	0.003928	0.007714	0.001425	0.00354
0.4965	0.008119	0.005827	-0.002418	0.002107	0.003397	0.022788	0.003908	0.007731	0.001424	0.003522
0.497	0.008142	0.005848	-0.002497	0.002114	0.003383	0.022698	0.003888	0.007748	0.001424	0.003504
0.4975	0.008165	0.00587	-0.00257	0.00212	0.003368	0.022608	0.003869	0.007765	0.001424	0.003486
0.498	0.008188	0.005892	-0.002638	0.002125	0.003354	0.022517	0.003849	0.007783	0.001425	0.003469
0.4985	0.008209	0.005915	-0.002701	0.002131	0.003339	0.022426	0.003831	0.007799	0.001425	0.003453
0.499	0.008231	0.005939	-0.002758	0.002137	0.003324	0.022334	0.003812	0.007816	0.001425	0.003437
0.4995	0.008252	0.005963	-0.00281	0.002142	0.003308	0.022241	0.003794	0.007833	0.001425	0.003421
0.5	0.008273	0.005988	-0.002857	0.002147	0.003292	0.022147	0.003776	0.007849	0.001426	0.003406
0.5005	0.008293	0.006013	-0.002898	0.002152	0.003276	0.022053	0.003759	0.007866	0.001426	0.003392
0.501	0.008313	0.006039	-0.002935	0.002157	0.00326	0.021958	0.003742	0.007882	0.001427	0.003378
0.5015	0.008333	0.006066	-0.002967	0.002162	0.003244	0.021863	0.003725	0.007898	0.001427	0.003364
0.502	0.008352	0.006094	-0.002995	0.002166	0.003227	0.021767	0.003708	0.007913	0.001428	0.003351
0.5025	0.008371	0.006123	-0.003017	0.00217	0.00321	0.02167	0.003692	0.007929	0.001429	0.003338
0.503	0.008389	0.006152	-0.003035	0.002174	0.003193	0.021572	0.003676	0.007944	0.00143	0.003326
0.5035	0.008408	0.006182	-0.003049	0.002178	0.003175	0.021474	0.00366	0.007959	0.001431	0.003314
0.504	0.008425	0.006213	-0.003058	0.002181	0.003157	0.021375	0.003645	0.007974	0.001432	0.003303
0.5045	0.008443	0.006245	-0.003063	0.002185	0.003139	0.021275	0.003629	0.007989	0.001433	0.003292
0.505	0.008459	0.006277	-0.003064	0.002188	0.003121	0.021175	0.003615	0.008003	0.001434	0.003282
0.5055	0.008476	0.006311	-0.00306	0.002191	0.003103	0.021074	0.0036	0.008018	0.001435	0.003272
0.506	0.008492	0.006346	-0.003053	0.002194	0.003085	0.020972	0.003585	0.008031	0.001436	0.003262
0.5065	0.008508	0.006381	-0.003042	0.002196	0.003066	0.020869	0.003571	0.008045	0.001438	0.003253
0.507	0.008523	0.006418	-0.003026	0.002199	0.003047	0.020766	0.003557	0.008058	0.001439	0.003244
0.5075	0.008538	0.006455	-0.003008	0.002201	0.003028	0.020662	0.003544	0.008072	0.001441	0.003236
0.508	0.008553	0.006494	-0.002985	0.002203	0.003009	0.020558	0.00353	0.008084	0.001442	0.003228
0.5085	0.008567	0.006534	-0.002959	0.002205	0.00299	0.020452	0.003517	0.008097	0.001444	0.00322
0.509	0.008581	0.006575	-0.00293	0.002206	0.002971	0.020346	0.003504	0.008109	0.001445	0.003213
0.5095	0.008594	0.006617	-0.002897	0.002208	0.002951	0.02024	0.003491	0.008121	0.001447	0.003206
0.51	0.008608	0.00666	-0.002861	0.002209	0.002931	0.020132	0.003478	0.008132	0.001449	0.003199
0.5105	0.00862	0.006704	-0.002822	0.00221	0.002912	0.020024	0.003466	0.008144	0.001451	0.003193
0.511	0.008633	0.00675	-0.00278	0.002211	0.002892	0.019916	0.003453	0.008155	0.001452	0.003187
0.5115	0.008645	0.006796	-0.002735	0.002211	0.002872	0.019806	0.003441	0.008165	0.001454	0.003182
0.512	0.008657	0.006844	-0.002687	0.002212	0.002852	0.019696	0.003429	0.008175	0.001456	0.003176
0.5125	0.008668	0.006893	-0.002637	0.002212	0.002832	0.019585	0.003418	0.008185	0.001458	0.003171
0.513	0.008679	0.006944	-0.002584	0.002212	0.002812	0.019474	0.003406	0.008195	0.00146	0.003167
0.5135	0.00869	0.006996	-0.002528	0.002212	0.002791	0.019362	0.003394	0.008204	0.001462	0.003162
0.514	0.0087	0.007049	-0.00247	0.002212	0.002771	0.019249	0.003383	0.008213	0.001465	0.003158
0.5145	0.00871	0.007104	-0.002409	0.002211	0.002751	0.019136	0.003372	0.008221	0.001467	0.003155
0.515	0.00872	0.00716	-0.002346	0.00221	0.00273	0.019022	0.003361	0.008229	0.001469	0.003151
0.5155	0.00873	0.007217	-0.002281	0.00221	0.00271	0.018907	0.00335	0.008236	0.001471	0.003148
0.516	0.008739	0.007276	-0.002214	0.002208	0.002689	0.018791	0.003339	0.008244	0.001474	0.003145
0.5165	0.008748	0.007336	-0.002145	0.002207	0.002669	0.018675	0.003328	0.00825	0.001476	0.003142
0.517	0.008757	0.007398	-0.002073	0.002206	0.002648	0.018559	0.003318	0.008257	0.001478	0.00314
0.5175	0.008765	0.007461	-0.002001	0.002204	0.002628	0.018441	0.003307	0.008263	0.001481	0.003138
0.518	0.008773	0.007526	-0.001926	0.002203	0.002607	0.018323	0.003297	0.008268	0.001483	0.003136
0.5185	0.008781	0.007592	-0.00185	0.002201	0.002587	0.018205	0.003287	0.008273	0.001486	0.003134
0.519	0.008789	0.00766	-0.001772	0.002199	0.002566	0.018086	0.003276	0.008278	0.001488	0.003132
0.5195	0.008796	0.007729	-0.001693	0.002196	0.002546	0.017966	0.003266	0.008282	0.001491	0.003131
0.52	0.008803	0.0078	-0.001612	0.002194	0.002526	0.017846	0.003256	0.008286	0.001493	0.00313
0.5205	0.00881	0.007873	-0.00153	0.002191	0.002505	0.017725	0.003246	0.008289	0.001496	0.003129
0.521	0.008817	0.007947	-0.001447	0.002189	0.002485	0.017603	0.003236	0.008292	0.001499	0.003128
0.5215	0.008823	0.008023	-0.001362	0.002186	0.002464	0.017481	0.003227	0.008294	0.001501	0.003127
0.522	0.00883	0.008101	-0.001277	0.002183	0.002444	0.017359	0.003217	0.008296	0.001504	0.003127
0.5225	0.008836	0.00818	-0.001191	0.00218	0.002424	0.017236	0.003207	0.008297	0.001507	0.003126
0.523	0.008842	0.008261	-0.001103	0.002177	0.002404	0.017112	0.003197	0.008298	0.001509	0.003126
0.5235	0.008847	0.008344	-0.001015	0.002173	0.002384	0.016988	0.003188	0.008298	0.001512	0.003126
0.524	0.008853	0.008429	-0.000927	0.00217	0.002364	0.016863	0.003178	0.008298	0.001515	0.003126
0.5245	0.008859	0.008515	-0.000837	0.002166	0.002344	0.016738	0.003169	0.008298	0.001518	0.003127
0.525	0.008864	0.008603	-0.000747	0.002162	0.002324	0.016613	0.003159	0.008297	0.001521	0.003127
0.5255	0.008869	0.008693	-0.000656	0.002158	0.002304	0.016486	0.00315	0.008295	0.001523	0.003128
0.526	0.008874	0.008785	-0.000565	0.002154	0.002285	0.01636	0.00314	0.008293	0.001526	0.003128
0.5265	0.008879	0.008878	-0.000474	0.00215	0.002265	0.016233	0.003131	0.00829	0.001529	0.003129
0.527	0.008884	0.008973	-0.000382	0.002146	0.002246	0.016106	0.003121	0.008287	0.001532	0.00313
0.5275	0.008889	0.009071	-0.00029	0.002141	0.002227	0.015978	0.003112	0.008284	0.001535	0.003131
0.528	0.008894	0.00917	-0.000198	0.002137	0.002207	0.01585	0.003102	0.00828	0.001538	0.003132
0.5285	0.008899	0.00927	-0.000106	0.002132	0.002188	0.015722	0.003093	0.008275	0.001541	0.003133
0.529	0.008903	0.009373	-1.4e-05	0.002127	0.002169	0.015593	0.003084	0.00827	0.001544	0.003134
0.5295	0.008908	0.009478	7.8e-05	0.002123	0.002151	0.015464	0.003074	0.008264	0.001547	0.003135
0.53	0.008913	0.009584	0.00017	0.002118	0.002132	0.015335	0.003065	0.008258	0.001549	0.003136
0.5305	0.008917	0.009692	0.000262	0.002113	0.002114	0.015205	0.003055	0.008252	0.001552	0.003138
0.531	0.008922	0.009803	0.000354	0.002108	0.002095	0.015075	0.003046	0.008244	0.001555	0.003139
0.5315	0.008927	0.009915	0.000445	0.002102	0.002077	0.014945	0.003036	0.008237	0.001558	0.00314
0.532	0.008931	0.010029	0.000537	0.002097	0.002059	0.014814	0.003027	0.008228	0.001561	0.003142
0.5325	0.008936	0.010145	0.000627	0.002092	0.002041	0.014684	0.003018	0.00822	0.001564	0.003143
0.533	0.008941	0.010263	0.000718	0.002086	0.002024	0.014553	0.003008	0.00821	0.001567	0.003145
0.5335	0.008946	0.010383	0.000808	0.002081	0.002006	0.014422	0.002999	0.008201	0.00157	0.003147
0.534	0.008951	0.010504	0.000897	0.002076	0.001989	0.014291	0.002989	0.00819	0.001573	0.003148
0.5345	0.008956	0.010628	0.000986	0.00207	0.001972	0.014159	0.002979	0.00818	0.001576	0.00315
0.535	0.008961	0.010753	0.001074	0.002064	0.001955	0.014028	0.00297	0.008168	0.001579	0.003151
0.5355	0.008966	0.010881	0.001161	0.002059	0.001939	0.013896	0.00296	0.008156	0.001582	0.003153
0.536	0.008972	0.01101	0.001248	0.002053	0.001922	0.013765	0.002951	0.008144	0.001585	0.003154
0.5365	0.008977	0.011141	0.001334	0.002047	0.001906	0.013633	0.002941	0.008131	0.001588	0.003156
0.537	0.008983	0.011275	0.001419	0.002041	0.00189	0.013502	0.002931	0.008118	0.001591	0.003158
0.5375	0.008989	0.01141	0.001503	0.002035	0.001874	0.01337	0.002921	0.008104	0.001593	0.003159
0.538	0.008995	0.011547	0.001587	0.002029	0.001858	0.013238	0.002912	0.00809	0.001596	0.003161
0.5385	0.009001	0.011685	0.001669	0.002023	0.001843	0.013107	0.002902	0.008075	0.001599	0.003162
0.539	0.009007	0.011826	0.00175	0.002017	0.001828	0.012975	0.002892	0.00806	0.001602	0.003164
0.5395	0.009014	0.011969	0.001831	0.002011	0.001813	0.012844	0.002882	0.008044	0.001605	0.003165
0.54	0.009021	0.012113	0.00191	0.002005	0.001798	0.012713	0.002872	0.008027	0.001608	0.003167
0.5405	0.009028	0.01226	0.001989	0.001999	0.001784	0.012581	0.002862	0.008011	0.001611	0.003168
0.541	0.009036	0.012408	0.002066	0.001993	0.001769	0.01245	0.002852	0.007993	0.001613	0.003169
0.5415	0.009043	0.012558	0.002142	0.001987	0.001755	0.012319	0.002842	0.007976	0.001616	0.003171
0.542	0.009051	0.01271	0.002217	0.001981	0.001741	0.012189	0.002831	0.007957	0.001619	0.003172
0.5425	0.009059	0.012863	0.002291	0.001975	0.001728	0.012058	0.002821	0.007939	0.001622	0.003173
0.543	0.009068	0.013019	0.002364	0.001969	0.001715	0.011928	0.002811	0.00792	0.001625	0.003174
0.5435	0.009077	0.013176	0.002435	0.001963	0.001702	0.011798	0.002801	0.0079	0.001627	0.003175
0.544	0.009086	0.013335	0.002505	0.001957	0.001689	0.011668	0.00279	0.00788	0.00163	0.003176
0.5445	0.009096	0.013495	0.002574	0.001951	0.001676	0.011539	0.00278	0.007859	0.001633	0.003177
0.545	0.009105	0.013658	0.002641	0.001945	0.001664	0.01141	0.002769	0.007839	0.001635	0.003178
0.5455	0.009116	0.013822	0.002708	0.001938	0.001652	0.011281	0.002759	0.007817	0.001638	0.003179
0.546	0.009126	0.013988	0.002772	0.001932	0.00164	0.011153	0.002748	0.007796	0.001641	0.00318
0.5465	0.009137	0.014155	0.002836	0.001926	0.001629	0.011025	0.002738	0.007773	0.001643	0.003181
0.547	0.009149	0.014324	0.002898	0.00192	0.001618	0.010897	0.002727	0.007751	0.001646	0.003181
0.5475	0.00916	0.014495	0.002959	0.001914	0.001607	0.01077	0.002717	0.007728	0.001648	0.003182
0.548	0.009173	0.014667	0.003018	0.001908	0.001596	0.010643	0.002706	0.007705	0.001651	0.003183
0.5485	0.009185	0.014841	0.003076	0.001903	0.001586	0.010517	0.002695	0.007681	0.001654	0.003183
0.549	0.009198	0.015016	0.003133	0.001897	0.001576	0.010391	0.002684	0.007657	0.001656	0.003184
0.5495	0.009212	0.015193	0.003188	0.001891	0.001566	0.010266	0.002673	0.007632	0.001658	0.003184
0.55	0.009226	0.015371	0.003241	0.001885	0.001557	0.010142	0.002662	0.007607	0.001661	0.003184
0.5505	0.00924	0.015551	0.003294	0.001879	0.001547	0.010017	0.002651	0.007582	0.001663	0.003184
0.551	0.009255	0.015732	0.003344	0.001874	0.001538	0.009894	0.00264	0.007557	0.001666	0.003184
0.5515	0.00927	0.015915	0.003394	0.001868	0.00153	0.009771	0.002629	0.007531	0.001668	0.003185
0.552	0.009286	0.016099	0.003442	0.001862	0.001521	0.009649	0.002618	0.007505	0.001671	0.003184
0.5525	0.009303	0.016284	0.003488	0.001857	0.001513	0.009527	0.002607	0.007478	0.001673	0.003184
0.553	0.00932	0.01647	0.003533	0.001851	0.001505	0.009406	0.002596	0.007452	0.001675	0.003184
0.5535	0.009337	0.016658	0.003576	0.001846	0.001498	0.009286	0.002585	0.007425	0.001678	0.003184
0.554	0.009355	0.016847	0.003618	0.00184	0.001491	0.009166	0.002574	0.007397	0.00168	0.003184
0.5545	0.009373	0.017037	0.003659	0.001835	0.001484	0.009047	0.002563	0.00737	0.001682	0.003183
0.555	0.009392	0.017229	0.003698	0.00183	0.001477	0.008929	0.002551	0.007342	0.001684	0.003183
0.5555	0.009412	0.017421	0.003736	0.001825	0.001471	0.008812	0.00254	0.007314	0.001686	0.003182
0.556	0.009432	0.017615	0.003772	0.00182	0.001465	0.008695	0.002529	0.007285	0.001689	0.003182
0.5565	0.009453	0.017809	0.003806	0.001815	0.001459	0.008579	0.002517	0.007257	0.001691	0.003181
0.557	0.009474	0.018005	0.00384	0.00181	0.001453	0.008464	0.002506	0.007228	0.001693	0.00318
0.5575	0.009496	0.018201	0.003872	0.001805	0.001448	0.008349	0.002495	0.007199	0.001695	0.003179
0.558	0.009518	0.018399	0.003902	0.0018	0.001443	0.008236	0.002483	0.00717	0.001697	0.003178
0.5585	0.009541	0.018597	0.003931	0.001795	0.001439	0.008123	0.002472	0.00714	0.001699	0.003177
0.559	0.009564	0.018796	0.003958	0.001791	0.001434	0.008012	0.00246	0.007111	0.001701	0.003176
0.5595	0.009588	0.018996	0.003985	0.001786	0.00143	0.007901	0.002449	0.007081	0.001703	0.003175
0.56	0.009613	0.019197	0.004009	0.001782	0.001427	0.007791	0.002437	0.007051	0.001705	0.003174
0.5605	0.009638	0.019398	0.004033	0.001777	0.001423	0.007681	0.002426	0.007021	0.001707	0.003173
0.561	0.009664	0.0196	0.004055	0.001773	0.00142	0.007573	0.002414	0.006991	0.001709	0.003172
0.5615	0.009691	0.019802	0.004076	0.001769	0.001417	0.007466	0.002403	0.006961	0.001711	0.00317
0.562	0.009718	0.020005	0.004095	0.001765	0.001415	0.007359	0.002391	0.00693	0.001712	0.003169
0.5625	0.009745	0.020209	0.004113	0.001761	0.001412	0.007254	0.00238	0.0069	0.001714	0.003168
0.563	0.009774	0.020413	0.00413	0.001757	0.00141	0.007149	0.002368	0.006869	0.001716	0.003166
0.5635	0.009803	0.020617	0.004145	0.001753	0.001409	0.007046	0.002357	0.006838	0.001718	0.003165
0.564	0.009832	0.020822	0.004159	0.001749	0.001407	0.006943	0.002346	0.006808	0.00172	0.003163
0.5645	0.009862	0.021027	0.004172	0.001745	0.001406	0.006842	0.002334	0.006777	0.001721	0.003161
0.565	0.009893	0.021233	0.004184	0.001742	0.001405	0.006741	0.002323	0.006746	0.001723	0.00316
0.5655	0.009924	0.021438	0.004194	0.001738	0.001405	0.006642	0.002311	0.006715	0.001725	0.003158
0.566	0.009956	0.021644	0.004203	0.001735	0.001404	0.006543	0.0023	0.006684	0.001726	0.003156
0.5665	0.009989	0.02185	0.004211	0.001732	0.001404	0.006446	0.002289	0.006654	0.001728	0.003154
0.567	0.010022	0.022055	0.004218	0.001729	0.001405	0.006349	0.002277	0.006623	0.00173	0.003153
0.5675	0.010055	0.022261	0.004224	0.001726	0.001405	0.006254	0.002266	0.006592	0.001731	0.003151
0.568	0.01009	0.022467	0.004228	0.001723	0.001406	0.006159	0.002255	0.006561	0.001733	0.003149
0.5685	0.010125	0.022673	0.004232	0.00172	0.001407	0.006066	0.002243	0.00653	0.001734	0.003147
0.569	0.01016	0.022878	0.004234	0.001717	0.001408	0.005974	0.002232	0.0065	0.001736	0.003145
0.5695	0.010197	0.023083	0.004236	0.001715	0.00141	0.005883	0.002221	0.006469	0.001737	0.003143
0.57	0.010233	0.023288	0.004236	0.001712	0.001412	0.005792	0.00221	0.006438	0.001739	0.003141
0.5705	0.010271	0.023493	0.004235	0.00171	0.001414	0.005703	0.002199	0.006408	0.00174	0.003139
0.571	0.010308	0.023697	0.004233	0.001707	0.001417	0.005615	0.002188	0.006378	0.001742	0.003137
0.5715	0.010347	0.023901	0.004231	0.001705	0.001419	0.005529	0.002177	0.006347	0.001743	0.003135
0.572	0.010386	0.024104	0.004227	0.001703	0.001422	0.005443	0.002166	0.006317	0.001744	0.003133
0.5725	0.010426	0.024307	0.004222	0.001701	0.001425	0.005358	0.002155	0.006287	0.001746	0.003131
0.573	0.010466	0.024509	0.004217	0.001699	0.001429	0.005274	0.002144	0.006257	0.001747	0.003129
0.5735	0.010507	0.02471	0.00421	0.001697	0.001432	0.005192	0.002133	0.006227	0.001749	0.003127
0.574	0.010548	0.024911	0.004203	0.001696	0.001436	0.00511	0.002122	0.006198	0.00175	0.003125
0.5745	0.01059	0.025111	0.004195	0.001694	0.00144	0.00503	0.002112	0.006168	0.001751	0.003123
0.575	0.010632	0.02531	0.004186	0.001693	0.001445	0.004951	0.002101	0.006139	0.001752	0.003121
0.5755	0.010675	0.025508	0.004176	0.001691	0.00145	0.004873	0.002091	0.00611	0.001754	0.003119
0.576	0.010719	0.025706	0.004166	0.00169	0.001454	0.004796	0.00208	0.006081	0.001755	0.003117
0.5765	0.010763	0.025902	0.004155	0.001689	0.001459	0.00472	0.00207	0.006053	0.001756	0.003115
0.577	0.010807	0.026097	0.004143	0.001688	0.001465	0.004645	0.00206	0.006024	0.001757	0.003113
0.5775	0.010852	0.026291	0.00413	0.001687	0.00147	0.004571	0.002049	0.005996	0.001759	0.003112
0.578	0.010898	0.026484	0.004117	0.001686	0.001476	0.004499	0.002039	0.005968	0.00176	0.00311
0.5785	0.010944	0.026676	0.004103	0.001685	0.001482	0.004427	0.002029	0.005941	0.001761	0.003108
0.579	0.01099	0.026866	0.004088	0.001685	0.001488	0.004357	0.002019	0.005913	0.001762	0.003106
0.5795	0.011037	0.027055	0.004073	0.001684	0.001495	0.004288	0.002009	0.005886	0.001763	0.003104
0.58	0.011084	0.027243	0.004058	0.001684	0.001501	0.004219	0.002	0.005859	0.001764	0.003103
0.5805	0.011132	0.027429	0.004041	0.001683	0.001508	0.004152	0.00199	0.005832	0.001765	0.003101
0.581	0.01118	0.027613	0.004025	0.001683	0.001515	0.004086	0.00198	0.005806	0.001766	0.003099
0.5815	0.011229	0.027797	0.004007	0.001683	0.001522	0.004021	0.001971	0.00578	0.001768	0.003098
0.582	0.011278	0.027978	0.00399	0.001683	0.00153	0.003958	0.001961	0.005754	0.001769	0.003096
0.5825	0.011328	0.028158	0.003971	0.001683	0.001537	0.003895	0.001952	0.005729	0.00177	0.003095
0.583	0.011378	0.028336	0.003953	0.001683	0.001545	0.003833	0.001943	0.005704	0.001771	0.003093
0.5835	0.011428	0.028512	0.003934	0.001683	0.001553	0.003772	0.001934	0.005679	0.001772	0.003092
0.584	0.011478	0.028686	0.003915	0.001683	0.001561	0.003713	0.001925	0.005655	0.001773	0.003091
0.5845	0.011529	0.028859	0.003895	0.001684	0.001569	0.003654	0.001916	0.005631	0.001774	0.003089
0.585	0.011581	0.029029	0.003875	0.001684	0.001577	0.003597	0.001907	0.005607	0.001775	0.003088
0.5855	0.011632	0.029198	0.003854	0.001685	0.001586	0.003541	0.001899	0.005584	0.001776	0.003087
0.586	0.011684	0.029364	0.003834	0.001685	0.001595	0.003485	0.00189	0.005561	0.001777	0.003086
0.5865	0.011737	0.029529	0.003813	0.001686	0.001603	0.003431	0.001882	0.005538	0.001778	0.003085
0.587	0.011789	0.029691	0.003792	0.001687	0.001612	0.003378	0.001874	0.005516	0.001779	0.003084
0.5875	0.011842	0.029851	0.003771	0.001688	0.001621	0.003325	0.001865	0.005494	0.00178	0.003083
0.588	0.011895	0.030009	0.003749	0.001689	0.001631	0.003274	0.001857	0.005472	0.001781	0.003082
0.5885	0.011948	0.030164	0.003727	0.00169	0.00164	0.003224	0.00185	0.005451	0.001782	0.003082
0.589	0.012002	0.030317	0.003706	0.001691	0.001649	0.003175	0.001842	0.005431	0.001782	0.003081
0.5895	0.012056	0.030468	0.003684	0.001692	0.001659	0.003126	0.001834	0.00541	0.001783	0.003081
0.59	0.01211	0.030616	0.003662	0.001693	0.001668	0.003079	0.001827	0.00539	0.001784	0.00308
0.5905	0.012164	0.030762	0.003639	0.001694	0.001678	0.003033	0.001819	0.005371	0.001785	0.00308
0.591	0.012218	0.030905	0.003617	0.001696	0.001688	0.002987	0.001812	0.005352	0.001786	0.003079
0.5915	0.012273	0.031045	0.003595	0.001697	0.001698	0.002943	0.001805	0.005333	0.001787	0.003079
0.592	0.012328	0.031183	0.003573	0.001698	0.001708	0.0029	0.001798	0.005315	0.001788	0.003079
0.5925	0.012383	0.031318	0.003551	0.0017	0.001718	0.002857	0.001791	0.005297	0.001789	0.003079
0.593	0.012437	0.031451	0.003528	0.001702	0.001728	0.002816	0.001785	0.00528	0.00179	0.003079
0.5935	0.012493	0.03158	0.003506	0.001703	0.001738	0.002775	0.001778	0.005263	0.001791	0.003079
0.594	0.012548	0.031707	0.003484	0.001705	0.001749	0.002735	0.001772	0.005246	0.001792	0.00308
0.5945	0.012603	0.031831	0.003462	0.001707	0.001759	0.002697	0.001765	0.00523	0.001793	0.00308
0.595	0.012658	0.031952	0.00344	0.001708	0.001769	0.002659	0.001759	0.005214	0.001793	0.003081
0.5955	0.012714	0.032071	0.003418	0.00171	0.00178	0.002622	0.001753	0.005199	0.001794	0.003081
0.596	0.012769	0.032186	0.003396	0.001712	0.00179	0.002585	0.001747	0.005184	0.001795	0.003082
0.5965	0.012824	0.032298	0.003375	0.001714	0.0018	0.00255	0.001742	0.00517	0.001796	0.003083
0.597	0.01288	0.032407	0.003354	0.001716	0.001811	0.002516	0.001736	0.005156	0.001797	0.003084
0.5975	0.012935	0.032513	0.003332	0.001718	0.001821	0.002482	0.001731	0.005143	0.001798	0.003085
0.598	0.012991	0.032616	0.003311	0.00172	0.001832	0.002449	0.001726	0.00513	0.001799	0.003086
0.5985	0.013046	0.032716	0.00329	0.001722	0.001842	0.002417	0.00172	0.005117	0.0018	0.003087
0.599	0.013101	0.032813	0.00327	0.001724	0.001852	0.002386	0.001715	0.005105	0.0018	0.003088
0.5995	0.013156	0.032906	0.003249	0.001726	0.001863	0.002356	0.001711	0.005093	0.001801	0.003089
0.6	0.013211	0.032996	0.003229	0.001728	0.001873	0.002327	0.001706	0.005082	0.001802	0.003091
0.6005	0.013267	0.033083	0.00321	0.001731	0.001884	0.002298	0.001701	0.005071	0.001803	0.003093
0.601	0.013321	0.033166	0.00319	0.001733	0.001894	0.00227	0.001697	0.005061	0.001804	0.003094
0.6015	0.013376	0.033247	0.003171	0.001735	0.001904	0.002243	0.001693	0.005051	0.001805	0.003096
0.602	0.013431	0.033323	0.003152	0.001737	0.001914	0.002216	0.001689	0.005041	0.001806	0.003098
0.6025	0.013485	0.033397	0.003133	0.001739	0.001924	0.00219	0.001685	0.005032	0.001807	0.0031
0.603	0.01354	0.033467	0.003115	0.001742	0.001934	0.002165	0.001681	0.005024	0.001807	0.003102
0.6035	0.013594	0.033533	0.003097	0.001744	0.001944	0.002141	0.001677	0.005016	0.001808	0.003104
0.604	0.013648	0.033596	0.003079	0.001746	0.001954	0.002117	0.001674	0.005008	0.001809	0.003107
0.6045	0.013702	0.033656	0.003062	0.001748	0.001964	0.002094	0.00167	0.005001	0.00181	0.003109
0.605	0.013755	0.033712	0.003045	0.001751	0.001974	0.002072	0.001667	0.004994	0.001811	0.003112
0.6055	0.013809	0.033765	0.003028	0.001753	0.001983	0.00205	0.001664	0.004987	0.001812	0.003114
0.606	0.013862	0.033814	0.003012	0.001755	0.001992	0.002029	0.001661	0.004981	0.001813	0.003117
0.6065	0.013914	0.033859	0.002996	0.001757	0.002002	0.002009	0.001658	0.004976	0.001814	0.00312
0.607	0.013967	0.033901	0.002981	0.00176	0.002011	0.001989	0.001656	0.00497	0.001815	0.003123
0.6075	0.014019	0.033939	0.002966	0.001762	0.00202	0.00197	0.001653	0.004966	0.001815	0.003126
0.608	0.014071	0.033974	0.002952	0.001764	0.002029	0.001952	0.001651	0.004961	0.001816	0.003129
0.6085	0.014123	0.034005	0.002938	0.001766	0.002038	0.001934	0.001648	0.004957	0.001817	0.003132
0.609	0.014174	0.034033	0.002924	0.001768	0.002046	0.001917	0.001646	0.004954	0.001818	0.003136
0.6095	0.014225	0.034057	0.002911	0.001771	0.002054	0.0019	0.001644	0.004951	0.001819	0.003139
0.61	0.014276	0.034077	0.002898	0.001773	0.002063	0.001884	0.001642	0.004948	0.00182	0.003143
0.6105	0.014327	0.034094	0.002886	0.001775	0.002071	0.001868	0.001641	0.004946	0.001821	0.003146
0.611	0.014377	0.034107	0.002874	0.001777	0.002078	0.001853	0.001639	0.004944	0.001822	0.00315
0.6115	0.014426	0.034116	0.002863	0.001779	0.002086	0.001839	0.001638	0.004942	0.001823	0.003154
0.612	0.014476	0.034122	0.002852	0.001781	0.002093	0.001825	0.001636	0.004941	0.001824	0.003158
0.6125	0.014524	0.034124	0.002841	0.001783	0.002101	0.001811	0.001635	0.00494	0.001824	0.003162
0.613	0.014573	0.034122	0.002831	0.001785	0.002108	0.001798	0.001634	0.00494	0.001825	0.003166
0.6135	0.014621	0.034117	0.002822	0.001787	0.002114	0.001785	0.001633	0.00494	0.001826	0.00317
0.614	0.014669	0.034108	0.002813	0.001789	0.002121	0.001773	0.001632	0.00494	0.001827	0.003174
0.6145	0.014716	0.034095	0.002804	0.001791	0.002127	0.001762	0.001632	0.004941	0.001828	0.003179
0.615	0.014763	0.034079	0.002796	0.001792	0.002133	0.00175	0.001631	0.004942	0.001829	0.003183
0.6155	0.014809	0.03406	0.002788	0.001794	0.002139	0.00174	0.001631	0.004943	0.00183	0.003187
0.616	0.014855	0.034036	0.002781	0.001796	0.002144	0.001729	0.00163	0.004945	0.001831	0.003192
0.6165	0.014901	0.034009	0.002775	0.001798	0.002149	0.001719	0.00163	0.004947	0.001832	0.003197
0.617	0.014946	0.033979	0.002768	0.001799	0.002154	0.00171	0.00163	0.004949	0.001833	0.003201
0.6175	0.014991	0.033945	0.002763	0.001801	0.002158	0.001701	0.00163	0.004952	0.001834	0.003206
0.618	0.015035	0.033907	0.002758	0.001802	0.002163	0.001692	0.00163	0.004955	0.001835	0.003211
0.6185	0.015079	0.033866	0.002753	0.001804	0.002166	0.001683	0.00163	0.004958	0.001836	0.003216
0.619	0.015122	0.033822	0.002749	0.001805	0.00217	0.001675	0.001631	0.004962	0.001837	0.003221
0.6195	0.015165	0.033774	0.002745	0.001807	0.002173	0.001668	0.001631	0.004966	0.001838	0.003226
0.62	0.015207	0.033722	0.002742	0.001808	0.002176	0.00166	0.001632	0.00497	0.001838	0.003231
0.6205	0.015249	0.033667	0.002739	0.001809	0.002179	0.001653	0.001632	0.004974	0.001839	0.003236
0.621	0.01529	0.033609	0.002736	0.00181	0.002181	0.001646	0.001633	0.004979	0.00184	0.003242
0.6215	0.015331	0.033547	0.002734	0.001811	0.002183	0.00164	0.001634	0.004984	0.001841	0.003247
0.622	0.015371	0.033482	0.002733	0.001812	0.002184	0.001634	0.001635	0.004989	0.001842	0.003252
0.6225	0.015411	0.033414	0.002732	0.001813	0.002186	0.001628	0.001636	0.004995	0.001843	0.003258
0.623	0.015451	0.033343	0.002732	0.001814	0.002186	0.001623	0.001637	0.005001	0.001844	0.003263
0.6235	0.015489	0.033268	0.002732	0.001815	0.002187	0.001617	0.001638	0.005007	0.001845	0.003269
0.624	0.015528	0.03319	0.002732	0.001816	0.002187	0.001612	0.00164	0.005013	0.001846	0.003274
0.6245	0.015566	0.033109	0.002733	0.001817	0.002186	0.001607	0.001641	0.005019	0.001847	0.00328
0.625	0.015603	0.033024	0.002734	0.001817	0.002185	0.001603	0.001642	0.005026	0.001848	0.003285
0.6255	0.01564	0.032937	0.002736	0.001818	0.002184	0.001599	0.001644	0.005033	0.001849	0.003291
0.626	0.015676	0.032847	0.002738	0.001818	0.002182	0.001594	0.001646	0.00504	0.00185	0.003297
0.6265	0.015712	0.032754	0.002741	0.001819	0.00218	0.001591	0.001647	0.005047	0.001851	0.003303
0.627	0.015748	0.032657	0.002744	0.001819	0.002178	0.001587	0.001649	0.005055	0.001852	0.003308
0.6275	0.015782	0.032558	0.002747	0.001819	0.002175	0.001583	0.001651	0.005062	0.001853	0.003314
0.628	0.015817	0.032456	0.002751	0.001819	0.002172	0.00158	0.001653	0.00507	0.001854	0.00332
