time	SOL	GASLAT	GASMED	TA	SM	BFLH	VL	VM	RF	GMAX	GMED
0	0.0473267321960839	0.00639050256284556	0.0104659597853231	0.335203438596946	0.114250080015241	0.0202462559748014	0.00452133296891757	0.0096162486154219	0.00929371129987028	0.146644455059879	0.00275476337658992
0.00104166666666667	0.0459000623663224	0.00637348812080288	0.0104455313748569	0.323764856961993	0.114637307709669	0.0235551254371958	0.00485740002538813	0.00970502624349912	0.00930795052447389	0.144019626487962	0.00343812702634128
0.00208333333333333	0.0444818326540249	0.00635613428860767	0.0104224600066426	0.312393357666142	0.115156774183771	0.0270249112201478	0.00521099795118473	0.00980628942613957	0.00932276152853803	0.141390875165502	0.00416646943286391
0.003125	0.043077009815514	0.00633817259736597	0.0103965141086295	0.301128618809007	0.115814934412914	0.0306564694778587	0.00558251838137923	0.00992094662952331	0.00933839481144516	0.138767651715387	0.00494062892329318
0.00416666666666667	0.041690398496287	0.00631937983222592	0.0103676008499291	0.290006219751296	0.116618298231614	0.0344503864950859	0.00597232374559013	0.0100498157465882	0.00935516762233273	0.136159991938325	0.00576157640436599
0.00520833333333333	0.0403264620411723	0.00629956425624046	0.0103357858521399	0.279057439404268	0.117572923733271	0.0384068562082653	0.00638075742809226	0.0101936111492215	0.00937344135872047	0.133578466704247	0.00663042979150848
0.00625	0.0389891752827076	0.00627854501734481	0.010301290763267	0.268309337443552	0.118684018862426	0.0425255799861374	0.0068081609971827	0.0103529541134833	0.0093936052698848	0.131034008823273	0.0075484364021183
0.00729166666666667	0.0376819725252108	0.00625613413073904	0.0102644583394359	0.257784625968378	0.119955738810432	0.0468057103239419	0.00725486758513148	0.010528398731914	0.00941608907540338	0.128537738048293	0.00851692768971892
0.00833333333333333	0.0364078083861115	0.0062321113203955	0.0102256953794177	0.247501835176528	0.121391116809843	0.0512457858431563	0.00772116816105847	0.0107204421158893	0.00944135352427865	0.126100823643054	0.00953723955663443
0.009375	0.0351692825904651	0.00620621027387713	0.0101854164334454	0.237475926709001	0.122992305250998	0.0558436754992233	0.00820726793426412	0.0109295090255446	0.00946982964563647	0.123734335901765	0.0106106422178686
0.0104166666666667	0.0339687132594104	0.00617812119245505	0.0101440215747714	0.227718905382849	0.124760934441923	0.0605967115372507	0.00871326322280048	0.0111559273285733	0.00950185664639145	0.12144914695162	0.0117383240549921
0.0114583333333333	0.0328080936572052	0.00614749416080076	0.0101019134130586	0.218240395728259	0.126698181832921	0.0655020385335909	0.00923914076397221	0.0113999047678509	0.0095376594355877	0.119255862734083	0.0129214268127065
0.0125	0.0316889883566124	0.00611395928791243	0.0100595170898919	0.209048424922219	0.128804643239826	0.0705568894280117	0.00978477908642639	0.0116615080052001	0.0095773526034312	0.117164680012739	0.0141610846026931
0.0135416666666667	0.0306124861543171	0.00607716829740412	0.0100172751350749	0.200150144636325	0.131080071680064	0.0757586677186325	0.0103499702824754	0.0119406535105141	0.00962095504447137	0.115185192974976	0.0154584153329232
0.0145833333333333	0.0295792949002675	0.00603681626012411	0.00997561866403556	0.191552052500667	0.133522985588789	0.0811048313495541	0.0109344888250385	0.0122371192030905	0.00966843412679032	0.113326212272758	0.0168144534729996
0.015625	0.0285899105347186	0.00599262179532932	0.00993493057950908	0.183259713892264	0.1361304842778	0.0865925284529928	0.0115381780410976	0.0125505656320878	0.00971979449188651	0.111595556175335	0.0182300707040597
0.0166666666666667	0.027644677176187	0.00594430460731791	0.00989551347446598	0.17527718531458	0.138898412258115	0.0922182800276803	0.0121609939944597	0.0128805538524059	0.00977516637823129	0.109999773762669	0.0197059689240351
0.0177083333333333	0.0267437343487619	0.00589159040223247	0.00985756772614233	0.16760637326659	0.141821823837389	0.0979778722740365	0.0128029902989535	0.0132265662604826	0.00983483333241076	0.108543932051517	0.0212427428384997
0.01875	0.025887003718455	0.0058342245233283	0.00982119488441014	0.160246659077042	0.144895524480128	0.103866134428197	0.0134642806097991	0.0135880369790445	0.00989920339344528	0.107231597906036	0.0228409242167031
0.0197916666666667	0.0250742149910059	0.00577199931568055	0.00978643342780867	0.153194831634015	0.148114444701837	0.109876528112862	0.0141450125272485	0.0139643747270478	0.00996877803801381	0.106064868308937	0.0245009938057604
0.0208333333333333	0.0243048893368796	0.005704808432042	0.00975330661417887	0.146445073321304	0.151474420942912	0.116000833960919	0.0148453585185868	0.0143549571724123	0.0100441613578006	0.105044264881011	0.0262234112037732
0.021875	0.0235783118111413	0.00563268757824665	0.00972185788819077	0.139988944382326	0.154973155033536	0.122229090832405	0.0155655039165251	0.0147590997304708	0.0101260933273726	0.104168581465998	0.028008705781121
0.0229166666666667	0.0228935582606411	0.00555581302081035	0.00969215519779468	0.133815504928019	0.158609892008002	0.128549706597898	0.0163056029257377	0.0151760089969531	0.0102154557535648	0.103434877610435	0.0298576399408716
0.0239583333333333	0.0222495614264932	0.00547447560104261	0.0096642584312436	0.127911778919238	0.162384388905802	0.13494951886079	0.0170657032103628	0.015604727707798	0.0103132429813287	0.102838601158628	0.0317713654510826
0.025	0.0216451366622499	0.00538904919989536	0.0096381626976765	0.122264043560926	0.166297025361596	0.141413761486501	0.0178456915194953	0.0160440859993498	0.0104205418265841	0.102373651287639	0.0337514442270212
0.0260416666666667	0.0210789348260838	0.00529996150659397	0.00961374675191952	0.116860026761979	0.170349618733861	0.147926209073501	0.0186453087257893	0.0164926984327162	0.0105385456147105	0.102032348227122	0.0357996782973938
0.0270833333333333	0.020549388851059	0.00520766423539059	0.00959075881724982	0.111690554083925	0.174545058084492	0.154469614586773	0.0194642038027956	0.0169490922100124	0.010668564283851	0.101805555470183	0.0379178257134528
0.028125	0.0200547148117544	0.00511260198045241	0.00956884795662207	0.106749196808629	0.178885711348917	0.161026136918258	0.0203019574120616	0.0174119636049367	0.0108119777779046	0.101683175300395	0.0401073570200228
0.0291666666666667	0.0195929551033606	0.00501519700429146	0.00954762769598154	0.102030777771795	0.18337242372175	0.167577399393886	0.0211580290970028	0.0178803334134343	0.0109701490143803	0.101654837588353	0.0423693160954313
0.0302083333333333	0.0191620207012115	0.00491585576016583	0.009526735192924	0.097530368680872	0.188004965259599	0.174104631100356	0.0220316460508295	0.0183534471257846	0.0111443630501035	0.101710399299992	0.044704213232398
0.03125	0.0187597073993055	0.00481498131989656	0.00950585145982666	0.0932429742414017	0.192782971917627	0.180590497186859	0.0229217197932745	0.0188305997809409	0.0113358162476663	0.101840198222102	0.0471119428774783
0.0322916666666667	0.0183837039767296	0.00471298202455747	0.00948470396102546	0.0891634998536	0.197705985131822	0.187022826329156	0.0238268303166847	0.0193110838792127	0.0115456303638551	0.102035247368808	0.0495918302727223
0.0333333333333333	0.0180316138534798	0.00461028061675986	0.00946308917986492	0.0852870014343337	0.202772449933157	0.193396764759275	0.0247452361921512	0.0197942433124917	0.0117748553225913	0.10228730917571	0.0521427998686372
0.034375	0.0177009887997118	0.00450733522543523	0.00944090406518266	0.0816088901442516	0.207978995751174	0.19971267924848	0.0256748838997711	0.0202795361140143	0.012024443099361	0.102588661722025	0.0547635344457946
0.0354166666666667	0.0173893539225141	0.00440465763044789	0.0094181419845708	0.0781245725046138	0.213320769746852	0.205972672963296	0.0266134233144691	0.0207665173763576	0.0122952184411706	0.102931751088117	0.0574525453185106
0.0364583333333333	0.0170941804560203	0.0043028037681574	0.0093948421008009	0.0748288873146802	0.218792133169203	0.212179285538014	0.027558239402694	0.0212547160975887	0.012587865628861	0.103309094820985	0.0602081085327692
0.0375	0.016812814333392	0.00420235968801465	0.00937104542332931	0.0717159617702086	0.224386847877788	0.218335425606392	0.0285065449605023	0.0217434956130928	0.0129029272468862	0.103713397850859	0.0630280568727407
0.0385416666666667	0.0165424338749557	0.00410394661402432	0.00934680929295999	0.068779490518462	0.230097946798548	0.224443913080284	0.0294555866533151	0.0222319872090975	0.0132408227121756	0.104137650156238	0.0659095669001012
0.0395833333333333	0.0162801143808041	0.00400822551457549	0.00932224701306114	0.0660131202445756	0.235917737970844	0.230507505850142	0.0304028351489788	0.0227190903136674	0.013601877327018	0.104575172216606	0.0688491167036522
0.040625	0.0160231703919661	0.00391588825723077	0.00929752015544344	0.0634105609435151	0.241837432758702	0.236529483806688	0.031345975302868	0.0232035061639562	0.0139863352112152	0.105019497235119	0.0718425784854203
0.0416666666666667	0.0157698331509581	0.00382763910732177	0.00927279684929696	0.0609653380504099	0.247846634860688	0.242513379065001	0.0322829319590742	0.0236837505358896	0.0143943562546149	0.105463938909976	0.0748852363717495
0.0427083333333333	0.0155197259087479	0.00374416826133898	0.00924824556913184	0.0586705671495864	0.253934065904837	0.248462062816244	0.03321226067337	0.0241581002702687	0.014826039137476	0.105901170367909	0.0779717167149049
0.04375	0.0152736020411636	0.00366613206867732	0.00922405274182832	0.0565189897148411	0.260089301223454	0.254377195333644	0.0341335816211921	0.024624551071328	0.0152815354995362	0.106323325055965	0.0810961748516836
0.0447916666666667	0.015032707556398	0.00359415631676915	0.00920041253721433	0.054503032831235	0.266303694483405	0.260258786496032	0.0350475333352841	0.0250808952166781	0.0157612470415678	0.106722598244776	0.0842528256780196
0.0458333333333333	0.0147983688848218	0.00352885472417109	0.00917752389365927	0.0526148189990329	0.272569692177898	0.266104518647216	0.0359553110572265	0.0255249021251461	0.0162659716462347	0.107091957187356	0.0874362183035389
0.046875	0.0145718488198752	0.00347085091130283	0.00915562541901276	0.0508464655033854	0.278879377539351	0.271909455324581	0.0368581735146473	0.0259544958127377	0.0167968735352213	0.107425737764388	0.0906408568005658
0.0479166666666667	0.0143542876127979	0.00342079279304208	0.00913501091761338	0.0491905552448753	0.285223181551392	0.277666772619629	0.037757100156627	0.0263678524717449	0.0173552986983474	0.107720047424253	0.0938605619399826
0.0489583333333333	0.0141467024683119	0.00337934134427883	0.00911600968862251	0.0476402363453648	0.291589449751462	0.28336904803956	0.0386525943676673	0.026763396864167	0.0179425749632876	0.107972902168654	0.0970880264128724
0.05	0.0139500703523712	0.00334714722029109	0.00909898172985219	0.0461889986598999	0.297965428940056	0.289009442896664	0.0395445993485345	0.0271397060941111	0.0185599176869477	0.108184115793771	0.100314734461837
0.0510416666666667	0.0137654155006256	0.00332484628557842	0.00908434396767023	0.0448304343375557	0.304339006506883	0.294582814513383	0.0404325008283521	0.0274954179749002	0.0192084375590548	0.108354970851818	0.103531330030782
0.0520833333333333	0.0135938152187379	0.00331306344540722	0.00907260162208273	0.0435580861157443	0.310700038154038	0.300086706774756	0.0413151971256088	0.0278292704204347	0.01988915870348	0.10848767741244	0.106728245558123
0.053125	0.0134363448512544	0.00331240621800621	0.0090643780535342	0.0423656716353824	0.3170405724732	0.305521612851122	0.0421911876341659	0.0281402278872841	0.0206029828588343	0.108584686199262	0.109896274024586
0.0541666666666667	0.0132940422027128	0.00332346169972384	0.00906045196193597	0.0412476592566983	0.323353705863306	0.310890069431015	0.043058589848726	0.0284275596245163	0.0213506213535243	0.108647949600194	0.113027080921698
0.0552083333333333	0.0131679178525719	0.00334679571853318	0.00906176419068051	0.0401995098803785	0.329631723545701	0.316194898618092	0.0439150384320576	0.028690800151571	0.02213256250334	0.108678298880127	0.116113676352476
0.05625	0.0130589431741406	0.00338294454374535	0.00906938080116646	0.0392172490056326	0.335864621968396	0.321437122197587	0.0447575312129846	0.0289295755467566	0.0229491045994165	0.108675159035106	0.11915053259052
0.0572916666666667	0.012967989578025	0.00343243277001272	0.00908448933078256	0.0382969441441691	0.342040292318436	0.326614423019398	0.0455823237569545	0.0291434160067848	0.0238004074412702	0.108636619995962	0.122133222604296
0.0583333333333333	0.0128957762046089	0.00349584172472251	0.00910845484530685	0.0374345955301251	0.34814654650218	0.331722101755293	0.046384905857473	0.0293317290342846	0.024686501578381	0.108559705472317	0.125057905070425
0.059375	0.0128428492402296	0.00357388554458569	0.00914286698162783	0.0366263072690631	0.354173106985179	0.336756801179746	0.0471600240530061	0.0294938922996388	0.025607255956457	0.108440799587904	0.12792090000694
0.0604166666666667	0.0128095730228858	0.00366744113512435	0.00918953950243944	0.0358687895274024	0.360112464595266	0.34171865881883	0.0479017172196395	0.0296292987845626	0.0265623254908592	0.108276223091644	0.13071839903606
0.0614583333333333	0.0127961193225402	0.00377752943399944	0.00925045788882109	0.0351603860637133	0.365959662820767	0.346608720309629	0.0486034694153893	0.0297372892033639	0.0275510798039065	0.108062766315269	0.133446315996885
0.0625	0.0128024678220021	0.00390528272721614	0.0093276993289604	0.0345019334348191	0.371711126380951	0.351424887438707	0.0492586612253481	0.0298170241888356	0.0285725508773678	0.107798065579847	0.1361000552598
0.0635416666666667	0.0128284485507932	0.00405191530018386	0.00942338719866746	0.0338965922168178	0.377364717281708	0.356160865363551	0.0498611422795913	0.029867446527856	0.0296254387140074	0.107480907039699	0.138673978499682
0.0645833333333333	0.012873842500003	0.00421868465822889	0.00953966965200482	0.0333492002233	0.382921880716515	0.360809474086755	0.0504054747865213	0.0298874211232046	0.0307081201843496	0.107111395002347	0.141160915782895
0.065625	0.0129385045426947	0.00440685239978175	0.00967868603585536	0.0328659200277952	0.388387914761181	0.365367567807011	0.05088701222002	0.0298758567966875	0.0318186212399654	0.106690836432644	0.143552290203362
0.0666666666666667	0.0130224257367447	0.00461766520912749	0.00984256176695714	0.0324537692503981	0.393770077648886	0.36983681173495	0.0513024047460899	0.0298316011839166	0.0329546060484985	0.10622141867076	0.145838826582769
0.0677083333333333	0.0131257285095736	0.00485234501770513	0.0100334390435069	0.032119934273446	0.399078700447143	0.374219517623403	0.0516502679620351	0.0297532426589299	0.0341134066829111	0.105705813783182	0.148011253853044
0.06875	0.0132486842401579	0.00511207829006992	0.0102534827038369	0.0318714407661326	0.404330413206806	0.378515347530053	0.0519311179674004	0.0296391131312798	0.0352920599385087	0.1051466610848	0.150060477368207
0.0697916666666667	0.0133917754164615	0.00539800623797162	0.0105048500781188	0.0317152009013697	0.409548107160686	0.382721762762488	0.0521464720243794	0.0294876089480975	0.0364873116986361	0.104545922851058	0.15197723484076
0.0708333333333333	0.0135557525516898	0.00571121821713115	0.0107896691648508	0.0316581169378566	0.414757975312078	0.386835356820219	0.0522979628947042	0.0292976076593178	0.037695574277636	0.103904449148149	0.15375199881081
0.071875	0.0137416672798184	0.00605275784146998	0.0111100443409129	0.0317071103333141	0.419986970862928	0.390852614244335	0.0523870965342363	0.0290685981935919	0.0389128916714326	0.103222033483625	0.155376122354425
0.0729166666666667	0.0139508795433672	0.00642362951227272	0.0114680733036813	0.0318691470800858	0.42526103120561	0.394770939292787	0.0524154903145727	0.028800426649551	0.0401349624584259	0.10249772205209	0.156844168014309
0.0739583333333333	0.0141850669111684	0.00682479715077024	0.0118658589197856	0.0321513867674833	0.430603501705068	0.398588970637544	0.0523852594131484	0.0284930027939884	0.0413571770766115	0.10173014489725	0.158155728430059
0.075	0.0144462734272935	0.0072572183474003	0.0123055063153148	0.0325613765871011	0.436034700181025	0.402306318444053	0.0522994042483141	0.0281464360800921	0.0425746250653792	0.100918011822042	0.15931491318011
0.0760416666666667	0.0147369022285274	0.007721916180047	0.0127891000017434	0.0331070880620827	0.441572787943077	0.405924725089855	0.0521619448679207	0.0277615906220076	0.0437821036058679	0.100060757946635	0.160327749430644
0.0770833333333333	0.0150595382984012	0.00822002223189912	0.0133186685510791	0.0337967610970666	0.44723446356907	0.409449495429094	0.0519778378901102	0.0273404185688636	0.0449741533658758	0.0991590981828525	0.161199619440315
0.078125	0.0154167490763102	0.00875278260640704	0.0138961385418688	0.0346386752801162	0.453034385083469	0.412888616605262	0.0517532648569616	0.026885651964176	0.0461450854601611	0.0982154477081641	0.161934098799599
0.0791666666666667	0.0158110769620873	0.00932157107502921	0.0145232746224176	0.0356409378502431	0.458983243978006	0.416249811665527	0.0514962318398012	0.0264002621193947	0.0472889660782845	0.0972341875129325	0.16253266937445
0.0802083333333333	0.0162451668901362	0.00992791843396152	0.0152016280163334	0.0368113038525055	0.465085879661853	0.419537545839118	0.0512165539956746	0.0258871861764336	0.0483996785331357	0.0962215911827498	0.162994736170643
0.08125	0.0167218658481202	0.0105735320892038	0.0159325220174471	0.0381570335113318	0.471341151990599	0.422752311427822	0.0509250177834127	0.0253492529396734	0.0494712726263482	0.0951854249459812	0.16331855294678
0.0822916666666667	0.0172442088990842	0.0112602648683457	0.0167170818474089	0.0396848135436072	0.477742625495156	0.425893011919904	0.0506324531161613	0.024789175613278	0.0504984437781569	0.0941344968287805	0.163503239923273
0.0833333333333333	0.0178152649524659	0.0119900339438713	0.0175562906356772	0.0414007544532471	0.484278588563583	0.428959535263421	0.0503492014458729	0.0242096802404628	0.0514766374980877	0.0930783426887366	0.163550615313222
0.084375	0.0184379595969956	0.0127647471955199	0.0184510291654365	0.0433104334727129	0.49093272226619	0.431952662408097	0.0500849270598475	0.0236136798082568	0.0524016954303076	0.0920270063417458	0.163465897642272
0.0854166666666667	0.0191150280120913	0.0135862624668776	0.0194020721451827	0.0454189448435735	0.497687221892826	0.434871944731438	0.049848666542318	0.0230043485614724	0.0532696737439908	0.0909907900859965	0.163257652537183
0.0864583333333333	0.0198490502730498	0.014456355101709	0.0204100577174272	0.0477309321350524	0.504527304027028	0.437713087484059	0.0496490408255873	0.0223851404800168	0.0540774352997213	0.0899799170909045	0.162937426964878
0.0875	0.0206424273366683	0.0153766767151118	0.0214754618475807	0.050250583884701	0.5114439028487	0.440466548806638	0.0494943846930065	0.0217598267111215	0.0548237194365056	0.0890041081871922	0.162519127895858
0.0885416666666667	0.0214972958255752	0.0163487113666293	0.0225985931119503	0.0529815899537561	0.518433729138624	0.443119154842029	0.0493926632214172	0.0211325210321876	0.0555097475229992	0.0880721686134384	0.162018328101073
0.0895833333333333	0.0224154781575944	0.0173737444666732	0.0237795997425527	0.0559270722392783	0.525497885543708	0.445657984467282	0.0493513346749864	0.0205076092120642	0.0561388178790691	0.0871918343997063	0.161451718959114
0.090625	0.0233985039712821	0.0184528463821685	0.0250184637757376	0.0590894983575985	0.532639289237833	0.448072709239492	0.0493772889100815	0.0198895549103493	0.0567152180508443	0.0863700188676119	0.160836615413368
0.0916666666666667	0.024447693099707	0.0195868517169631	0.026314977125144	0.0624706006300208	0.539860922789288	0.450354121547795	0.0494769153513786	0.01928268516118	0.0572432618495894	0.085613196892475	0.160190249781012
0.0927083333333333	0.0255642642082633	0.0207763289550835	0.0276687306500841	0.0660713241114312	0.547166021697097	0.452492533168157	0.0496563424537203	0.0186910661031659	0.0577269525325716	0.0849275311061363	0.159528828417367
0.09375	0.0267493525678055	0.0220215548971928	0.0290791214000896	0.0698917657103864	0.55455686223412	0.454479851113931	0.0499217441173428	0.018118457691493	0.0581701185987249	0.0843186480134663	0.158866646635711
0.0947916666666667	0.0280038753534809	0.0233225019022409	0.0305453358772858	0.0739310971187057	0.56203175146758	0.456312832186209	0.0502795178013981	0.0175683166515676	0.058576659358671	0.0837913258728203	0.158215580907647
0.0958333333333333	0.0293283608184932	0.0246788301935176	0.0320662841854048	0.0781875531348585	0.569583513033385	0.457994201251162	0.0507362397194849	0.0170438564595408	0.0589507461164238	0.0833494156114966	0.157585019650196
0.096875	0.0307228619489672	0.026089862809862	0.0336405117115049	0.0826584565495047	0.577199356508856	0.459531347809232	0.0512984481146982	0.0165481335269692	0.0592969530267085	0.0829960301534477	0.156982013305754
0.0979166666666667	0.0321869562909295	0.0275545360424597	0.0352661504829395	0.0873401410699393	0.584862701637221	0.460933207308874	0.0519723587715266	0.0160840945543643	0.0596203043090314	0.0827338364422898	0.156411497506224
0.0989583333333333	0.0337197788721422	0.0290713493889425	0.0369409390724354	0.0922278092796329	0.592560442062757	0.462207616198504	0.0527635949504434	0.0156545504864706	0.0599262583315579	0.0825653637288994	0.155877001287015
0.1	0.035320048533257	0.0306383411610493	0.0386622778094016	0.097315490006783	0.600290184196937	0.463361158932234	0.053676998537155	0.0152621219780799	0.0602206454579525	0.0824932631439808	0.155381952107024
0.101041666666667	0.0369861128321189	0.0322530918680953	0.0404272823543867	0.102596161541309	0.608057331858818	0.464399685179253	0.0547165927164713	0.0149092443091596	0.0605095401186773	0.0825204398029053	0.154930460140466
0.102083333333333	0.0387160252308441	0.0339127465934692	0.0422327883365248	0.108062057746958	0.615865726546443	0.465326761483686	0.0558857283458578	0.0145982231613686	0.0607990402281268	0.0826500516228174	0.15452721097777
0.103125	0.0405076000296519	0.0356140705911523	0.0440753486668565	0.11370498729308	0.62371200066729	0.466141190181808	0.05718731145789	0.0143312729230215	0.0610949313187864	0.082885375909371	0.154177786469571
0.104166666666667	0.0423584367121121	0.0373535289327209	0.0459514746125306	0.119516254705223	0.631584890975295	0.466838045981878	0.0586239033354894	0.014110552917554	0.0614023048431718	0.083229543086499	0.153889484874884
0.105208333333333	0.0442659508172779	0.0391273129232775	0.0478580917115728	0.1254861065604	0.639466055362979	0.467415015133095	0.0601976250037618	0.0139382084060585	0.0617253029423058	0.0836851818039799	0.153670970118427
0.10625	0.0462273765312598	0.0409312621985133	0.0497926433250617	0.131603110361586	0.647330416254947	0.467879049342816	0.0619100234733885	0.0138163506568147	0.0620670420197606	0.0842540367588828	0.153530776309998
0.107291666666667	0.0482396559880986	0.0427607722500781	0.0517528873100872	0.137853799192166	0.655146228547803	0.468246354937507	0.0637620208346756	0.0137469973865092	0.0624296184798828	0.0849366607256901	0.153476839297681
0.108333333333333	0.0502992335233574	0.0446109568290964	0.0537375267865072	0.144222628280561	0.662875147179312	0.468536269245135	0.0657539016926887	0.013732067430986	0.0628141546328959	0.0857323287643628	0.153517817794201
0.109375	0.0524018930724142	0.0464771766733603	0.0557476742575659	0.150692306577869	0.670471790990891	0.468766595256492	0.0678852934400229	0.0137734128603966	0.0632209094714946	0.0866392604110616	0.153664398647426
0.110416666666667	0.054542683654019	0.0483554102897115	0.0577871250207937	0.157244695066433	0.677883973975281	0.468953448444251	0.0701551444843466	0.0138728061154418	0.0636494047072282	0.0876550884940967	0.153929079620648
0.111458333333333	0.0567158732647356	0.0502419888395426	0.0598608111741951	0.163862101215984	0.685053596726262	0.469111822376619	0.0725616988967545	0.0140318847932732	0.0640984576159427	0.0887774078850766	0.154324853475529
0.1125	0.0589149731539059	0.0521331737030696	0.0619733256294249	0.170528268083144	0.691916324074799	0.469254712384916	0.0751025053189033	0.0142521430097492	0.0645661209012523	0.0900042438411916	0.154863797314012
0.113541666666667	0.0611329289102765	0.0540250915854655	0.0641285923752891	0.177228395322275	0.6984019480531	0.469391667154869	0.0777744831690778	0.0145350683919021	0.0650496351489628	0.091334374769456	0.155556185671836
0.114583333333333	0.0633625308637795	0.0559137351404941	0.0663300703550612	0.183948079050731	0.704438565732677	0.469527097765106	0.0805739526522666	0.0148824170988512	0.0655454302006599	0.0927675075132582	0.156410464227244
0.115625	0.0655969338571411	0.0577948189849923	0.0685808987304742	0.190671869723774	0.70995789354671	0.469658686108212	0.0834965218615967	0.0152964387509873	0.0660490985988946	0.0943042864797959	0.157433986365614
0.116666666666667	0.0678298451139004	0.059663730634644	0.0708838563933594	0.197382506984065	0.714898363581536	0.469776543683536	0.0865369354458509	0.0157798486845939	0.0665553136611248	0.0959461633003012	0.158634017864604
0.117708333333333	0.0700552212918512	0.0615157338298143	0.0732413634762864	0.20406118837472	0.719208496950165	0.469863254110791	0.0896892176297892	0.0163355852327423	0.067057795648217	0.0976952477873116	0.160018533871094
0.11875	0.072267103333644	0.0633464328070261	0.0756560085325174	0.210688354577473	0.722850134566057	0.469894999225647	0.0929470813127202	0.0169665709543538	0.0675493763758678	0.0995542353699297	0.161596648340659
0.119791666666667	0.0744598914958483	0.0651521163596532	0.0781314621388999	0.217244480144632	0.725795462372108	0.469843576005077	0.0963040956292699	0.01767558481804	0.0680221321498548	0.101526366683638	0.163378729965364
0.120833333333333	0.0766284056783192	0.0669294087656052	0.0806728120985205	0.223710880290091	0.728019509274403	0.469679193495361	0.0997536923361572	0.0184652082148123	0.0684676331146511	0.103615265731002	0.1653761580101
0.121875	0.0787673276889379	0.0686744740959093	0.0832859839273111	0.230070682435425	0.72949754237811	0.469374657655686	0.103289404364739	0.0193378371803422	0.0688772784907568	0.105824609218942	0.167600683835704
0.122916666666667	0.0808705335337824	0.07038251255522	0.0859768470900806	0.236309612981967	0.730207255305329	0.468908636184592	0.106904917310011	0.0202957377856111	0.069242460475277	0.10815778521007	0.170063559622464
0.123958333333333	0.0829310596243271	0.0720477122349241	0.0887505346918828	0.242415832014386	0.730126762733794	0.468265104962227	0.110593804839927	0.0213410642222221	0.069554594699051	0.110617650265613	0.172774606970427
0.125	0.0849419945928028	0.0736632945379365	0.0916112938448007	0.248379014090636	0.729228823829344	0.467431105108299	0.114349612474419	0.0224759035449962	0.0698057530938271	0.113206283776725	0.175741400875453
0.126041666666667	0.0868979136382919	0.0752214406270403	0.0945629319914538	0.254189654259343	0.72747867939164	0.466395160779902	0.118166090108592	0.0237025177301295	0.0699902758162777	0.115924616704417	0.178968793523245
0.127083333333333	0.0887959149064977	0.0767133413058246	0.0976093920998012	0.259838208478493	0.724836302415457	0.465146023461851	0.122037035450936	0.0250236924288171	0.0701063134743423	0.118772018045327	0.182458783956551
0.128125	0.0906354526073996	0.0781297108128271	0.100754728124801	0.265313913411084	0.72126174417248	0.463671557181533	0.125956742406829	0.0264428693518914	0.0701559052490309	0.121746048665036	0.186210579986218
0.129166666666667	0.0924171769863515	0.0794617078412213	0.104002373405875	0.270605593766356	0.716724494225673	0.46195864969658	0.129921895203691	0.027963947959719	0.0701435576720815	0.124842416924763	0.19022086263051
0.130208333333333	0.0941416695399412	0.0807016547375587	0.107354398969207	0.275704906470333	0.711212348041167	0.459996827467083	0.133933250160228	0.029590927425554	0.0700746335748991	0.128055029986548	0.194484208978002
0.13125	0.0958086952989218	0.0818430648176377	0.11081121686442	0.280607980225016	0.704732100153288	0.457783463781249	0.137995061350251	0.0313276370255699	0.0699547182365222	0.131376064937153	0.198993282379528
0.132291666666667	0.0974172770013804	0.082880216766308	0.114371638691508	0.285313340495849	0.697303870219445	0.455322868631763	0.142112761841734	0.0331777545287368	0.0697899286956772	0.134795929651936	0.203738593152772
0.133333333333333	0.0989665781327691	0.0838077314674904	0.118033091520075	0.289819130239554	0.688959436141419	0.452620858054607	0.146291137475265	0.0351451124993953	0.0695874301352073	0.138303168275224	0.20870829750375
0.134375	0.10045699562108	0.0846206028376326	0.121791735913874	0.294121884159974	0.679745482678897	0.44968271120938	0.150534242339769	0.0372341118107491	0.0693556664818652	0.141884699454652	0.213888237560127
0.135416666666667	0.101890730088125	0.0853148332680865	0.125642341001036	0.298216073114818	0.669721472475529	0.446513466639192	0.154846382893707	0.0394499839006651	0.0691042747749625	0.145526569144391	0.219261838590255
0.136458333333333	0.103271593464765	0.085887997535844	0.129578024041747	0.302093775558538	0.658952401928804	0.443116846242732	0.159232963702136	0.0417986259231473	0.0688438523347341	0.149214962069168	0.224810138446766
0.1375	0.104604268239137	0.0863392306950661	0.133590019057429	0.305744433883581	0.647504932786749	0.439493973593145	0.163700666285959	0.0442860681073119	0.068585684978507	0.152937070949397	0.230512442890073
0.138541666666667	0.105893422232815	0.086668955796474	0.137667653497098	0.30915447510938	0.635445676463455	0.435642553037236	0.1682570622633	0.0469180378047418	0.0683414592679759	0.156681424220433	0.236346996566641
0.139583333333333	0.107143101501054	0.0868786802955814	0.141798737426032	0.312307187097555	0.622838091550364	0.431556815271806	0.172909931580187	0.0496999268563734	0.0681229788784256	0.160437449601931	0.242290808830305
0.140625	0.108356606243417	0.0869707330657151	0.145970172990577	0.315183350010061	0.609741037195583	0.427229126734578	0.1776663725273	0.0526370449738359	0.0679419093630527	0.164194570335633	0.248318838116326
0.141666666666667	0.109536723795741	0.0869477527328387	0.150168165453228	0.317762501580251	0.596210819275806	0.422651253293329	0.182531836692818	0.0557348073186918	0.0678095837927048	0.1679414437368	0.254403555483846
0.142708333333333	0.110686067748287	0.0868122870799617	0.154377916965295	0.320025173811772	0.582303066293719	0.417814744081305	0.187509528919145	0.0589985882419794	0.0677368628606956	0.17166549469556	0.260515243899833
0.14375	0.111807352184485	0.0865668164356235	0.158583350931309	0.321955574418988	0.568071847966011	0.412713610172369	0.19260025019903	0.062433351098458	0.067733970188435	0.175352601279764	0.266622304702049
0.144791666666667	0.112903382791259	0.0862138144082188	0.162767178744934	0.323542669714216	0.553568808479299	0.407347319565088	0.19780229310774	0.0660433140661024	0.0678102753662519	0.178987311532557	0.272691258051409
0.145833333333333	0.113976654100037	0.0857558099587438	0.166911013201797	0.324779664744509	0.538844027828606	0.401719272881391	0.203111523478211	0.0698317703894735	0.0679741040453399	0.182553858024219	0.278686990004619
0.146875	0.115029101842535	0.0851957631552984	0.170995281563109	0.325663302316365	0.523945506097113	0.395834032678125	0.208521938373321	0.0738011395126843	0.0682326312643922	0.186037245144862	0.284573864569213
0.147916666666667	0.116062556640906	0.0845372315723688	0.174999452053253	0.326193722196376	0.508916461002727	0.389698215775188	0.214026091053865	0.0779531505988857	0.0685918339834907	0.189423550174788	0.290317716794944
0.148958333333333	0.117079396862644	0.0837839944684926	0.178902772408841	0.326375434308356	0.49379364996552	0.383322278575001	0.219614848940613	0.0822888575979961	0.069056483871624	0.192699388909211	0.295887181326754
0.15	0.118082628253693	0.0829397620279004	0.182684566445854	0.326217478710986	0.478607506030099	0.376719808777962	0.22527747376414	0.0868084309327881	0.0696302020761201	0.195851139853343	0.301253220685526
0.151041666666667	0.119075313775212	0.0820081397815891	0.186323880720033	0.325730810790443	0.463383494697522	0.369905592998744	0.23100328162109	0.0915109379173757	0.0703155814887824	0.19886459059045	0.306389382451034
0.152083333333333	0.120059785766193	0.0809925041658833	0.189799291562832	0.32492546344405	0.448145348267087	0.362894804841391	0.236783891185479	0.0963942373573303	0.0711143128282291	0.201725365352555	0.311274278419478
0.153125	0.121037264110434	0.0798958543693309	0.193089748327462	0.323809631032355	0.432918200355849	0.355704055529269	0.242613517283906	0.101454930224495	0.0720273589723309	0.204420071315874	0.315892223231067
0.154166666666667	0.122008136916321	0.0787209370355973	0.19617783202166	0.322389677238879	0.417728954762494	0.348352121927935	0.248486933761586	0.106688362552238	0.0730555162795271	0.206937513161543	0.320229860196783
0.155208333333333	0.122972302288778	0.0774708263082399	0.199053468008187	0.320670711219153	0.402605361947427	0.340858241667671	0.254397756079203	0.112089152408558	0.0742003756584338	0.209269059927872	0.324273050324396
0.15625	0.123929085589477	0.076149720630919	0.20171336774273	0.318657565683733	0.387575977630152	0.333240613179328	0.260338795802856	0.117652422505802	0.0754648739323408	0.211407838614082	0.32800757496213
0.157291666666667	0.124877645695588	0.0747632276011463	0.204157484930628	0.316354872113017	0.372670358756579	0.325518412070291	0.266303233633284	0.123374610748363	0.0768528352588141	0.213347192163089	0.331422028605829
0.158333333333333	0.125818626584034	0.0733178180240792	0.206386702793356	0.313766425003179	0.357918058198535	0.317714436250822	0.272284973422494	0.129253270138298	0.078367992751791	0.215079416364085	0.334509240378175
0.159375	0.126755472909415	0.0718200994114191	0.208401564890039	0.310896325243748	0.343347374018113	0.309853919521308	0.278277859352468	0.135287217332649	0.0800133242997861	0.216596232403518	0.337265096752271
0.160416666666667	0.127693688596276	0.0702765873279727	0.210201371850936	0.307752148019186	0.328985707185743	0.30196159692922	0.284274518928291	0.141477730570661	0.0817909012556778	0.21789123957301	0.339688112358745
0.161458333333333	0.128639045810437	0.0686940129875308	0.211784436324839	0.304346347225387	0.314860349049029	0.294060956237506	0.290266666569591	0.147829493942527	0.0837018641470078	0.218962383239577	0.341782133199659
0.1625	0.129596673400678	0.0670798900820281	0.21314968610288	0.300694211017514	0.300998257010255	0.28617469799636	0.296247528639821	0.154350156591803	0.0857462435072249	0.219812853074901	0.34355859688114
0.163541666666667	0.130571282971993	0.0654427950755894	0.214299245176965	0.29681096062754	0.287425840764376	0.278324020585873	0.302214367405958	0.16104868272843	0.0879227591358761	0.220450787936815	0.345034430312499
0.164583333333333	0.13156783463778	0.0637919269992003	0.215240853695179	0.292710227544655	0.274168993735856	0.270527122430508	0.308169318876811	0.167933348562314	0.0902288404503538	0.220888338721126	0.346227037477159
0.165625	0.132592407780481	0.0621364054582844	0.215989232255521	0.288404126690325	0.261252388261606	0.262798519477905	0.314118194401324	0.175010308915557	0.0926609484831953	0.221140067873858	0.347150412838862
0.166666666666667	0.133653125835364	0.0604850213845316	0.216565706380433	0.283904042011082	0.248698393481113	0.255149422360229	0.32006775577097	0.182283203173939	0.0952151944760814	0.221220913464802	0.347813906732758
0.167708333333333	0.13476052010006	0.058846279042097	0.216995279508364	0.279221119315583	0.236526640834119	0.247588390496097	0.326023875396665	0.189753684841104	0.0978881410475252	0.221144364969461	0.348222350409987
0.16875	0.135926848010345	0.0572282576348299	0.217303128610159	0.274366196603746	0.224754038397315	0.240121791476134	0.331992486334744	0.197422389366116	0.100677358579872	0.220921450830797	0.348376845064421
0.169791666666667	0.137164701482415	0.0556384527712118	0.217513670893712	0.269349526026571	0.213394571527381	0.232754139900311	0.337981680095357	0.205289634703032	0.103581266488081	0.220560452527622	0.348276213235614
0.170833333333333	0.138485977172151	0.0540839037733916	0.217651973382424	0.264180954547896	0.202459054934119	0.22548856726712	0.344002135096544	0.213355352614044	0.106598473679827	0.220066949839002	0.347918015332656
0.171875	0.139901770488424	0.0525714461693812	0.217745177915698	0.258870885127567	0.191955276824462	0.21832736964221	0.350065342897739	0.221618406984299	0.109727440460926	0.219444310798361	0.347298788656637
0.172916666666667	0.141422375641224	0.0511078244138057	0.217822583421592	0.253431280002691	0.181888466272307	0.21127259705165	0.356181610331828	0.230075949541256	0.112966592903587	0.218694569039706	0.346415183788385
0.173958333333333	0.14305689034185	0.0496996636305694	0.217914477548496	0.247875695868616	0.172261747374451	0.204326771328855	0.362358931070128	0.23872347356352	0.116314122670647	0.217819033919751	0.345266473442555
0.175	0.144813420794529	0.0483534313540241	0.218050541069623	0.242218617348848	0.163076356831322	0.197493699977102	0.368601676623514	0.247555545268202	0.119767341158246	0.216818192033643	0.343855973092797
0.176041666666667	0.146700217632719	0.0470754278353108	0.218258843583826	0.23647480211363	0.154331540289306	0.190779461807681	0.374909205489178	0.256566272673054	0.123322268065317	0.215691055554159	0.342189644133341
0.177083333333333	0.148726554974554	0.0458717032866824	0.218566238852823	0.23065895632275	0.146024265453525	0.184193461149635	0.381275466209895	0.265749050104895	0.126973732083588	0.214434757232814	0.340274347706458
0.178125	0.150902998787067	0.0447478716260622	0.218999537369479	0.224786313888294	0.13814908506068	0.177749429108563	0.387689538966679	0.275096196679498	0.130715789765844	0.213045294253796	0.338119349220608
0.179166666666667	0.153241423983919	0.0437090053085272	0.219585930365506	0.218873487709508	0.130698293335951	0.171465369010761	0.394136806154187	0.28459854828408	0.13454228223121	0.211519148839575	0.335739543303352
0.180208333333333	0.155754252784278	0.0427597766676216	0.220352703369998	0.212938275433491	0.123662140782132	0.165361204625311	0.40060010517083	0.294244828175348	0.138447297331852	0.20985451287075	0.333155568883911
0.18125	0.158453211921635	0.0419047780841531	0.221327008484206	0.206998668964411	0.117028910536848	0.159455853724735	0.407059781856276	0.304021922807776	0.142425218601744	0.208051557244679	0.33039050923721
0.182291666666667	0.16134902313589	0.0411488145145537	0.222535241330457	0.20107181835328	0.11078505016092	0.153765883602299	0.413493121814002	0.313916601923296	0.146470207695064	0.206112429732743	0.327466522855364
0.183333333333333	0.164452149770006	0.0404969669604982	0.224001796603055	0.195173335008619	0.104915640679317	0.148305242725462	0.419874425774191	0.323916729724021	0.150575370551086	0.20404163036566	0.324402747894059
0.184375	0.167773661582162	0.0399543685141727	0.225748098925313	0.189317081540007	0.0994052244769285	0.143085213781047	0.426175272749915	0.33401042332227	0.154732084488767	0.201846433577627	0.321214725851479
0.185416666666667	0.171325634309862	0.0395258760117345	0.227792271866134	0.183515405257608	0.0942387118575018	0.138114470627245	0.432364873503994	0.344184944339271	0.158929788693236	0.199536820246978	0.317915629510591
0.186458333333333	0.175121068117724	0.0392159341900455	0.230149044114233	0.177779661431483	0.0894018040582057	0.133399209976533	0.438412394745887	0.354426680039295	0.163156606923549	0.197125046629507	0.314518079013876
0.1875	0.179173756728678	0.0390287235164025	0.232829817632181	0.172120654269803	0.0848805911739011	0.128943338957999	0.444291263489263	0.364720786040015	0.167401201927918	0.194625069556396	0.31103532303709
0.188541666666667	0.183498231507489	0.0389683151562838	0.235842820792501	0.166549364855118	0.080660862423367	0.124748641888462	0.449981854396801	0.375050453808663	0.171655083450182	0.192051739899519	0.307481604500296
0.189583333333333	0.188109138021914	0.0390385962900706	0.239193044987772	0.16107807161199	0.0767280797736997	0.120814827345882	0.455470417793186	0.385396412333127	0.175913568304871	0.189419871912204	0.303871369830286
0.190625	0.193019846821423	0.0392431374529619	0.24288204443138	0.15572035419835	0.0730681937407716	0.11713948887511	0.460748641164225	0.395736206321631	0.180174663819901	0.186743476526228	0.30021751961371
0.191666666666667	0.198241200421941	0.0395851921743539	0.246907844884866	0.150489584129649	0.0696685232882981	0.113718091310542	0.465818032001552	0.406045331052311	0.184436965651181	0.184035180352677	0.296530161771068
0.192708333333333	0.203781082429778	0.0400677265400806	0.251264989223527	0.145397450388185	0.0665180259335068	0.110544005160523	0.470694051012398	0.416301855904792	0.188698328215492	0.181305757485359	0.292816891123358
0.19375	0.209644806143861	0.0406935331800192	0.255944832447559	0.140453346873169	0.0636070175714781	0.107608567768914	0.475403682696539	0.42649066429314	0.192956202592979	0.178564071275272	0.289084037175173
0.194791666666667	0.215836093009799	0.0414657252813804	0.260936345551672	0.135664507592629	0.0609266251602255	0.104901180221045	0.479978406889899	0.436602955080709	0.197208750841763	0.175817768444801	0.285337786872509
0.195833333333333	0.222357899491442	0.0423883287378274	0.266227065838967	0.131037021250084	0.0584681013208069	0.102409473512988	0.484448286850984	0.44663339389299	0.201455226421237	0.173074508880543	0.281584579860122
0.196875	0.229212577396247	0.0434663254534846	0.271803311508263	0.126577211180089	0.0562222159689285	0.100119538874305	0.488840588454105	0.45658083553537	0.20569538719558	0.170343089050358	0.277830864201226
0.197916666666667	0.236401880289976	0.0447052079821702	0.277649666810661	0.122292002597411	0.0541789970605655	0.0980162120247824	0.493182181338147	0.466451138172297	0.209928898617229	0.167633801298992	0.274082555785207
0.198958333333333	0.243927100579098	0.0461104962490791	0.283749109575652	0.118188192520249	0.0523277976896649	0.0960837491481493	0.497501558936487	0.476255471523866	0.214155476549774	0.164957745470532	0.270344494732849
0.2	0.251788703499738	0.0476873767834375	0.290084905468879	0.114271770225367	0.050657457494647	0.0943068835339511	0.501827447720372	0.486005614495722	0.218375397378857	0.162325478692944	0.266620832079216
0.201041666666667	0.259985116123715	0.0494404569145659	0.296642587545876	0.110547566611355	0.0491565114845536	0.0926712551416225	0.506185822305339	0.495712589709997	0.222589382475465	0.15974581148864	0.262916267188467
0.202083333333333	0.268511363433754	0.0513736175075113	0.303409209196367	0.107018931337467	0.0478135489024312	0.0911629995874214	0.510598627656138	0.505388255207259	0.226797575375698	0.157225456870324	0.259236187477128
0.203125	0.277358298971687	0.0534899581196641	0.310370750305263	0.103687593260182	0.0466176797228914	0.089768245253357	0.515083868247414	0.515044948718305	0.230998527861998	0.154769730634689	0.255586191639785
0.204166666666667	0.28651234973169	0.0557918145369117	0.317510941466136	0.100553858186057	0.0455588839617617	0.0884725883587098	0.519655010459156	0.524692410078958	0.235189164694239	0.152383881456774	0.251973222363157
0.205208333333333	0.29595564642384	0.0582808209824993	0.324811955749285	0.0976169043369361	0.0446279727053943	0.0872608019969255	0.524319721778003	0.534335165260541	0.23936533372747	0.150074275324424	0.248407154902263
0.20625	0.305666648692522	0.0609580291869301	0.332254832369842	0.0948749058529789	0.0438162088538958	0.0861174954715587	0.529079264816625	0.543971818497832	0.243522402839321	0.147848635505072	0.244900409223929
0.207291666666667	0.315620539665444	0.063824140162953	0.339818475674312	0.092324946555108	0.043115014890605	0.0850282467348896	0.533928931446079	0.553596700251633	0.24765669918036	0.14571513487671	0.241465861148064
0.208333333333333	0.325788575719961	0.0668797713894508	0.347478234583618	0.0899628268551926	0.0425158856726882	0.0839801803281959	0.538858572430891	0.56320379770839	0.251767725261409	0.1436812217236	0.238114891285464
0.209375	0.33613734905913	0.0701254569459573	0.355205806038219	0.0877829211671216	0.0420102665783121	0.0829624260630554	0.543853326029466	0.57278913352021	0.255859446322448	0.141753247493733	0.234856759189598
0.210416666666667	0.34662984837198	0.0735612827117414	0.362971285449749	0.0857781981338411	0.0415895188551879	0.0819669363241372	0.548896214145555	0.582348622009348	0.259939891060009	0.139936924486242	0.231699547576815
0.211458333333333	0.357228133059093	0.0771864727237029	0.370748294644152	0.0839403561920436	0.0412451987183563	0.0809889906122193	0.553972019705843	0.591874662738946	0.264019384149053	0.138237817665537	0.228651627301942
0.2125	0.367894739134364	0.0809992045554417	0.378520252670703	0.0822599475301259	0.0409693814619392	0.0800272616214202	0.559069392751019	0.601355129966492	0.268107960149777	0.136661226115527	0.225721773945716
0.213541666666667	0.378591689638401	0.0849966878181569	0.38628100756724	0.0807264248186602	0.0407547152702222	0.0790831984377617	0.564179466492598	0.610773471831488	0.272213356529604	0.135211562434776	0.222918375425752
0.214583333333333	0.389279980047971	0.0891754465816974	0.394029206898396	0.0793281548343378	0.0405942819604192	0.0781595522551806	0.569292421417409	0.620107756907633	0.276340480110497	0.133892080976612	0.220249901946592
0.215625	0.399920678150637	0.0935316155402435	0.401763038549056	0.0780525231599799	0.0404815010742148	0.0772592837968439	0.574396502661831	0.629329241673477	0.280491649416285	0.132705554646385	0.217726437381738
0.216666666666667	0.410474572854203	0.0980611567154095	0.409477989870914	0.0768862267305031	0.0404101970537111	0.076385310617998	0.579482340383809	0.638402342812843	0.284666962286479	0.131655276996092	0.215360480482289
0.217708333333333	0.42089982253765	0.102760080800744	0.417166789321973	0.0758157650910104	0.0403747027403219	0.0755403810213737	0.584548289241479	0.647286148745071	0.288864712605389	0.130745223781238	0.213166414957636
0.21875	0.431151545886294	0.107624446971602	0.424820053198044	0.0748280346074993	0.0403698213649824	0.0747269773139766	0.589600241916714	0.655936161682079	0.293081766431962	0.129979254206551	0.211158933833687
0.219791666666667	0.441184444291527	0.112649950221851	0.432427106675086	0.0739108489829641	0.0403907003616046	0.0739473073194752	0.594645737288256	0.66430753301595	0.297313936001695	0.129360520318475	0.209351264312627
0.220833333333333	0.450954849717397	0.117831328593052	0.439978306955752	0.0730533099056792	0.0404327082566761	0.0732031201512512	0.59968802763713	0.672359944256362	0.301556291896592	0.128891790816914	0.20775417679126
0.221875	0.460421748116444	0.123161813553007	0.447465900580394	0.0722459202911024	0.0404912600306044	0.0724953370080148	0.604724501847332	0.680058756627546	0.305802937581091	0.128576114753352	0.206375610415539
0.222916666666667	0.469550554479184	0.128632934078608	0.454881219862618	0.0714801633627632	0.0405616430257744	0.0718237917024955	0.609748815102376	0.687371884072126	0.310045890266566	0.128417240902392	0.205220602049846
0.223958333333333	0.478317293738441	0.13423510127752	0.462213959586967	0.070747789582067	0.0406391115477839	0.0711872672648919	0.614753777615072	0.694269600945687	0.31427357125647	0.128419576758498	0.204292205334965
0.225	0.486706414896938	0.139959265721164	0.469454779666146	0.0700406418889928	0.040719364535143	0.0705837078467212	0.619733055047457	0.700727070535131	0.318470095582923	0.128587602370951	0.203593232734113
0.226041666666667	0.494705188432186	0.145799697445038	0.476594943281412	0.0693512259544727	0.040799095614202	0.0700103572049341	0.624680862420038	0.706723917430892	0.322616280250592	0.128925344788232	0.203127211141298
0.227083333333333	0.502303388376995	0.151756768062215	0.483623179145017	0.0686733511861265	0.0408762099256376	0.069463742225921	0.629589511501814	0.712243249119814	0.326691965431056	0.129436561510127	0.202898081405196
0.228125	0.509498741037631	0.157837388505044	0.490524938314916	0.0680022842431146	0.040949595870472	0.0689396123134684	0.634446050247386	0.717272224825083	0.33067755355095	0.130125190447367	0.202909548025197
0.229166666666667	0.516302092223846	0.164052459779915	0.497284534063184	0.0673344416231657	0.0410186533068246	0.0684329214790848	0.639230533509505	0.721800280812191	0.334553467814185	0.13099524502862	0.203164330306018
0.230208333333333	0.522737367998341	0.170414152476876	0.503889715080259	0.0666669214520577	0.0410829122545945	0.0679378080214895	0.643916951971185	0.725816188414408	0.338299583892466	0.132050124367861	0.203663349749146
0.23125	0.528836604981057	0.176935390836255	0.510337662071061	0.0659971387661531	0.041141844741031	0.0674476656994997	0.648474809791584	0.729308501897509	0.341896613764668	0.133292085148619	0.204405151325997
0.232291666666667	0.534635082443035	0.183630274942833	0.516636456439547	0.0653226939391527	0.0411946987048563	0.0669557772542581	0.652869122149623	0.732267706169868	0.345328052081123	0.134722354784746	0.205385507628053
0.233333333333333	0.540168135726421	0.190513673342301	0.522799815415939	0.0646414194418074	0.0412403476123145	0.066456449780862	0.657059545885817	0.734685467855022	0.348580562769171	0.136341424710774	0.206597291700898
0.234375	0.545467507869661	0.197600219474485	0.528840422522715	0.0639514672670214	0.0412772901133894	0.0659454959919611	0.661001229847144	0.736550783091128	0.351642085378846	0.13814895256726	0.208030819112066
0.235416666666667	0.550559229088672	0.204903516784506	0.534766385877293	0.0632513780043799	0.0413037161048699	0.0654196688836422	0.664646605871627	0.737846695356567	0.354498665853996	0.140143321409848	0.209674790277754
0.236458333333333	0.555464801419502	0.212435826288728	0.540581332844407	0.0625401114495706	0.0413175148190811	0.0648761547152022	0.667945205423877	0.738550811500526	0.357132010103112	0.142321167414552	0.211517939813375
0.2375	0.560203029743377	0.220208010100188	0.546285419985591	0.0618169847517007	0.0413162889394192	0.0643130800885742	0.670843912043359	0.738639124208552	0.359518468115419	0.144677094286408	0.213550620757751
0.238541666666667	0.564791390437205	0.228229371976874	0.551874497812869	0.0610814898444303	0.0412974579226423	0.0637307962542528	0.673290872965019	0.738089148403499	0.36162897352188	0.147203580737684	0.215765054063203
0.239583333333333	0.569246850948835	0.236507215046425	0.557338399539329	0.0603330257237068	0.0412584512974815	0.0631326639116541	0.675241389985572	0.736879307875311	0.363430288574365	0.149891047020088	0.218154231760016
0.240625	0.573584798571927	0.24504647103977	0.562660895402052	0.0595706501217467	0.0411968928140339	0.0625249579967285	0.67666550990931	0.734987138311604	0.364888613350933	0.152728220178276	0.220710995645085
0.241666666666667	0.577817692511904	0.253850046699355	0.56782184897575	0.0587931047256455	0.0411106201563429	0.0619164016706436	0.677556126597828	0.732391592569542	0.365974337635309	0.155702783902669	0.223428279105517
0.242708333333333	0.581955159535366	0.26291944001941	0.572799932327205	0.0579992968734245	0.0409975942107755	0.0613170351401217	0.677930404488065	0.729078057779005	0.366663990464184	0.158801991796062	0.226299408556249
0.24375	0.586003256158224	0.272254568441331	0.577574026016332	0.0571889573097113	0.0408560137013676	0.060736825984273	0.677821513331884	0.725041564084275	0.366937910046907	0.162012898131127	0.229317451636055
0.244791666666667	0.589962753957584	0.281853103965765	0.58212456361066	0.0563630473207182	0.0406848139087393	0.060185073257291	0.677268721380787	0.720289853782556	0.366777501108939	0.165322036856602	0.232474401846687
0.245833333333333	0.593829530230612	0.291710194271485	0.586438038582258	0.0555238766154301	0.0404841921646264	0.0596704927479423	0.676314329350279	0.714845049653773	0.366166695616848	0.168714775832059	0.235760626178292
0.246875	0.597596464550482	0.301818400641156	0.590511721151638	0.0546750672588469	0.0402556037075751	0.0592014511689765	0.675004706373772	0.708738533502066	0.365096918766963	0.172174941411303	0.239164111798224
0.247916666666667	0.601254183700451	0.312167456571168	0.594351743302004	0.0538213090395053	0.0400012556067885	0.0587861451006373	0.673387869848492	0.702005061927304	0.363570457103957	0.175685086180519	0.242669688711951
0.248958333333333	0.604792178995382	0.322744175435281	0.597965859684745	0.0529678177629625	0.0397235523290745	0.0584326715152358	0.671508038807768	0.694684533942998	0.361599635968785	0.179227069677869	0.246258643376129
0.25	0.608203025177066	0.3335326453237	0.601357870589623	0.0521196639068888	0.0394247133588746	0.0581490161340609	0.669403071444154	0.686825782550922	0.359204230471707	0.182782376523463	0.249908768623815
0.251041666666667	0.611488471412345	0.344514405376791	0.604527273534932	0.0512813429686243	0.0391066602499667	0.0579429742731752	0.667106070774103	0.6784841900061	0.356409914364331	0.186332168994659	0.253594574127703
0.252083333333333	0.614662583600842	0.355668537614216	0.607472657952796	0.0504567689206703	0.0387712713144255	0.0578219816315925	0.664646986825338	0.669714544511488	0.353247069577156	0.189857513522015	0.25728723603098
0.253125	0.61774852385594	0.366971444438394	0.610192867659855	0.049649448854062	0.0384208280418402	0.057792877490571	0.662052003056958	0.660565123150849	0.349748165707244	0.193340039256978	0.260954360299119
0.254166666666667	0.620772613187503	0.378396549145115	0.612683961328807	0.0488625100015773	0.0380583598273095	0.0578616990174835	0.65934245946342	0.651075952679734	0.345945201214519	0.196762896427964	0.264560056108045
0.255208333333333	0.62376048860691	0.389914497606169	0.61493884772185	0.0480985510889273	0.0376877495498054	0.05803356649161	0.656533623145819	0.641280859237544	0.341869808805317	0.200111356671584	0.268065612471122
0.25625	0.626734162584906	0.401493248362449	0.616951274307986	0.047359492472502	0.0373135520301016	0.0583127671729788	0.653632715508255	0.631212451540984	0.337554705025485	0.203372197758715	0.271430723705401
0.257291666666667	0.629708991940027	0.41309812512514	0.618717497391612	0.0466465789638309	0.036940594589369	0.0587031516953403	0.65063763073514	0.620906220258177	0.333033402141198	0.206532190503893	0.274614708830334
0.258333333333333	0.632692936330373	0.424692956503379	0.620236212815902	0.0459605764504243	0.0365735725764153	0.0592085741309801	0.647537661762955	0.610398575170327	0.328338241044349	0.209577484783409	0.2775767371297
0.259375	0.635687746242884	0.436242047005267	0.621511213427739	0.0453020189788307	0.0362168089622286	0.0598331214066827	0.644317235999756	0.599720660685344	0.32349875171006	0.212494808675864	0.280275381462305
0.260416666666667	0.638689177508166	0.447711853568738	0.622553210360439	0.0446712778923249	0.0358741735350981	0.0605811589159455	0.640962104151556	0.588894839716525	0.318540788606938	0.21527333309537	0.282669638348457
0.261458333333333	0.641687600913152	0.459071262771036	0.623377324957437	0.0440683938144802	0.0355490697301407	0.0614571307389794	0.637463513518265	0.577936974143393	0.313486188840483	0.217905911175568	0.284721573886199
0.2625	0.644672530505024	0.470289946113981	0.623998338255584	0.0434928332426761	0.0352444729875756	0.0624652589374923	0.633816533786467	0.566862114539397	0.308353524864123	0.220389265018286	0.286397526546148
0.263541666666667	0.647638561390807	0.481335689555172	0.624426752571485	0.0429433458124062	0.0349630285965747	0.0636093534514901	0.630014730976784	0.555688152863261	0.303159583727537	0.222723059119847	0.287666871675003
0.264583333333333	0.650586209129664	0.492172540887182	0.624668337793138	0.0424179827214398	0.0347071287336532	0.0648926227740307	0.626047580244663	0.544433611421693	0.297919805862494	0.224908101015657	0.288501807508535
0.265625	0.653516537558603	0.502760447650532	0.624726432364492	0.0419143076846788	0.0344789022852275	0.0663174407231115	0.621902526472755	0.533112185731606	0.292647019526233	0.226944422796033	0.288880363311852
0.266666666666667	0.656425705304336	0.513054897150926	0.624603080796096	0.0414298037942945	0.0342801442047633	0.067885199169342	0.617566622312161	0.521729565405691	0.287350029886739	0.22883062386014	0.288789799455848
0.267708333333333	0.65930466350173	0.523006888962218	0.624299706571952	0.0409622694782277	0.0341122612538722	0.0695962815115257	0.613026069468215	0.510284319150228	0.282034050174599	0.230565311299035	0.288227174046133
0.26875	0.662142074126823	0.532565119219489	0.623820299129097	0.0405098842445606	0.0339763159635219	0.0714500456311729	0.608266246171821	0.498771037434108	0.276703285597465	0.232149751149479	0.287197557680105
0.269791666666667	0.664925434096632	0.541679576568321	0.62317291953107	0.0400709166824469	0.0338732075393619	0.073444777886224	0.603272161857196	0.487182589897018	0.271363873606874	0.233590291283214	0.285711846467707
0.270833333333333	0.66764073217827	0.550305228707594	0.622366085049624	0.0396433830557977	0.0338039322983925	0.0755777186019069	0.598031252123759	0.475509389440632	0.266024638460832	0.234899787698312	0.283784869074639
0.271875	0.670274258327266	0.558405365486601	0.621405268329228	0.0392249635661895	0.0337697722448938	0.0778451835274264	0.592539848276026	0.463738509277522	0.260694965823825	0.236097711636558	0.281433516470661
0.272916666666667	0.672814603784095	0.565955180897494	0.620292912255625	0.0388132693906992	0.0337723058042982	0.0802426824107627	0.586806567609582	0.451857924201229	0.255381899313616	0.237208968116297	0.278674647986274
0.273958333333333	0.675250728670934	0.57294404224914	0.619029888928571	0.0384062990447752	0.0338133063259449	0.0827649123928721	0.58084791439055	0.439865002667416	0.250088729634137	0.238261977448732	0.275523428154682
0.275	0.67756756568472	0.579371157161259	0.617618021637219	0.0380027906455334	0.0338946814851837	0.0854055851118137	0.574680888192537	0.427771049643462	0.244815126661766	0.239286752263173	0.271993385827896
0.276041666666667	0.679743617720068	0.585237560177271	0.616063747737163	0.0376022599079887	0.0340185082570554	0.0881572053047208	0.568318286161377	0.415596905335415	0.239557727892005	0.240313298048703	0.26809812326605
0.277083333333333	0.681752166941873	0.590542913596	0.614378563760487	0.0372046744938771	0.0341870839267285	0.0910109719070595	0.561767129416088	0.403365063946865	0.234311027701805	0.241370223026579	0.263853244619613
0.278125	0.683563593569672	0.59528596273215	0.612574611873966	0.0368099396539509	0.0344029442198074	0.0939568264666528	0.555028174938897	0.391095388156672	0.229068655058818	0.242483484454056	0.259277599734149
0.279166666666667	0.685146485432137	0.599465113582634	0.610661497114141	0.0364175476943424	0.0346688878870631	0.096983541741819	0.548095911108989	0.378804150450985	0.223823969161469	0.243675521778153	0.254393712023304
0.280208333333333	0.686468290358643	0.603080878640694	0.608646779022867	0.0360265690133735	0.034987979264506	0.100078793650572	0.540959445027809	0.366504373397238	0.218569700160897	0.244965067822747	0.249227481100645
0.28125	0.687497206022213	0.606138352119461	0.606537344686718	0.0356357851524132	0.0353634215616624	0.103229180949112	0.533604361918959	0.354207861842631	0.213298222643706	0.246367555354549	0.243807418278262
0.282291666666667	0.688206938127351	0.608646744175886	0.6043412818738	0.0352436747249829	0.0357983088426301	0.106420196464325	0.526016147836361	0.341928122014767	0.208003337288793	0.247895764300286	0.238163730931485
0.283333333333333	0.688581830116222	0.610619072799096	0.602069327763114	0.0348482921298457	0.0362953959370236	0.109636441671272	0.518184366795942	0.329682496823756	0.202682759189378	0.249560427283586	0.232327397967629
0.284375	0.688615090679698	0.612073254979824	0.599734668847643	0.034447392609212	0.0368569637503001	0.112862248047115	0.510104120675159	0.317492995444196	0.19733999830513	0.251370688416534	0.226329218309007
0.285416666666667	0.688301009307626	0.613031100680943	0.597351665874567	0.0340389969551261	0.0374847618950934	0.116082080010599	0.501773367354368	0.305385672741966	0.191984556837574	0.253334469087488	0.220198830063656
0.286458333333333	0.687630916210579	0.613514139794443	0.594932996080521	0.033622050490733	0.0381800928547805	0.119280109865109	0.493189010251913	0.2933887117976	0.186630380258156	0.25545881953722	0.213963744447357
0.2875	0.686594801349945	0.613538708294429	0.592486154343402	0.033196576124688	0.0389441281805228	0.122439410366211	0.484345054981654	0.281529897183732	0.181293539930873	0.257750220855512	0.207648555242992
0.288541666666667	0.685181699572063	0.613112735631393	0.590013006727176	0.032763259365581	0.0397782312736307	0.125541465907191	0.475233564065708	0.269834344221223	0.175990103734857	0.260214798476522	0.201274682769751
0.289583333333333	0.683377043093846	0.612235151049591	0.587513688728563	0.0323230749048175	0.0406839227163083	0.128566026804814	0.465846823065512	0.258323206351354	0.170734671151689	0.26285848418952	0.194860819455229
0.290625	0.681161264443032	0.610898473160676	0.58499148952636	0.0318773298226796	0.0416626519820771	0.131491271733299	0.456179304858494	0.247013334630282	0.165539693637318	0.265687116359548	0.188423717762317
0.291666666666667	0.67851127668458	0.609094109118075	0.582453902897279	0.0314277739597201	0.0427159309985932	0.13429494950424	0.4462304646885	0.235917246141448	0.160415289016232	0.268706398729219	0.181978884659963
0.292708333333333	0.675403663970187	0.606818037799738	0.579910314237553	0.0309764039133899	0.043845803505403	0.136956604212304	0.436008057707313	0.225043378016484	0.155369139097133	0.27192166266265	0.175541090436734
0.29375	0.671817502345517	0.604077132417025	0.577371074357251	0.0305251592192856	0.0450549429894721	0.139458882576762	0.425528730096297	0.214397192856846	0.150406469052232	0.275337479509794	0.169124733739623
0.294791666666667	0.667734625064009	0.600895654543744	0.574846928544863	0.0300758107158042	0.0463461373475273	0.141786809861764	0.414815408091853	0.203982742375511	0.145530372266009	0.278957277916078	0.162744055736882
0.295833333333333	0.663138150192664	0.597313872584395	0.572346094428992	0.0296299676992568	0.0477217150077007	0.143926752774585	0.403893688810955	0.193803837085732	0.140742421190563	0.282783063388533	0.156413216680083
0.296875	0.658010634621857	0.593377546182406	0.569872991472456	0.029189100841397	0.0491832840837374	0.145865828483616	0.392789082558455	0.18386509346286	0.136043280120572	0.286815161087286	0.150146279356229
0.297916666666667	0.65233223958004	0.589129908686905	0.567429961701199	0.028754609557	0.0507316574019885	0.147591640385008	0.38152681649591	0.174172977772378	0.131433276822947	0.291051843427078	0.143957123662982
0.298958333333333	0.646079996071169	0.584609654403737	0.565017310683974	0.0283278713885129	0.0523668397001825	0.149093095319036	0.370133655574695	0.164735906225282	0.126912925741113	0.295488775899583	0.137859280742939
0.3	0.63923007623568	0.57984953227617	0.562631364145691	0.0279102390851839	0.0540880633415936	0.150361447097529	0.358639260994851	0.155563166238382	0.122483252148479	0.300118267932678	0.131865679831643
0.301041666666667	0.63176537895742	0.574875758621492	0.560263410272546	0.0275030120648583	0.0558938355651449	0.151390455976172	0.347076069076365	0.146663547042827	0.118145911916596	0.304928427653632	0.125988354913546
0.302083333333333	0.623684116333941	0.56970995142833	0.557899585496726	0.0271073367432008	0.0577819897876831	0.152176825798832	0.335478117404625	0.13804437354509	0.113903206812209	0.309902605642175	0.120238168542102
0.303125	0.615002204793178	0.564372422054199	0.555522064412954	0.0267240715388781	0.059749827355413	0.152721486183164	0.323879427509754	0.12971103951288	0.109758022355928	0.315019515562885	0.114624542972307
0.304166666666667	0.605752512419431	0.558885396148717	0.553112664961718	0.0263537284944918	0.0617943507184118	0.153030035441772	0.312312527230929	0.121666946042942	0.10571373210977	0.320253946381295	0.109155199853343
0.305208333333333	0.595984361377314	0.553274428716805	0.550656375604609	0.0259964672869922	0.0639123307414013	0.153111986010964	0.300807370802679	0.113913712841354	0.101774097144779	0.325577722885889	0.103836037611869
0.30625	0.585758604927524	0.547567293304835	0.548141137305554	0.025652091390509	0.0661002924908967	0.152980190664984	0.289390502661421	0.106451541745324	0.0979430503399852	0.330960656637612	0.0986712403194507
0.307291666666667	0.575138473776254	0.541791729073154	0.545555314741431	0.0253200918798021	0.0683552429084225	0.152649732464085	0.278084469917561	0.0992797167239269	0.0942242634996279	0.336371166517135	0.0936635058000748
0.308333333333333	0.564183575068324	0.535973980423259	0.542887066057124	0.0249997233294069	0.0706761327158035	0.152135606804401	0.266907964589695	0.0923971444991448	0.0906206501298393	0.341776191103891	0.0888142708993325
0.309375	0.552950166359673	0.530138260971043	0.540126950234394	0.0246900330171385	0.0730644247630513	0.151450909802797	0.255876881006186	0.0858026813593539	0.0871340691794189	0.347140272678709	0.0841239581343391
0.310416666666667	0.541493812161846	0.524305672889296	0.537270250875153	0.0243898417670094	0.0755229567407005	0.150606367105012	0.245005639935023	0.0794951299633491	0.0837652400624762	0.352424146373781	0.0795922507722655
0.311458333333333	0.529870334860519	0.518492255319106	0.534314073329235	0.0240977345226675	0.0780543481985233	0.149610593922507	0.234308119083347	0.0734730410896256	0.0805136941886694	0.357583539732212	0.0752183103497075
0.3125	0.518134097109938	0.51270776700209	0.531251252523756	0.0238120939861248	0.0806602080497181	0.148470721995853	0.223798155874984	0.067734492717756	0.0773777250929752	0.362568805499952	0.0710009210819161
0.313541666666667	0.506334732898208	0.506957196195094	0.528067192767319	0.0235311614143516	0.0833410828348094	0.147193339272695	0.213489796551435	0.0622769383957463	0.0743544344505104	0.367325442995634	0.0669386325526813
0.314583333333333	0.494514815235174	0.501243553127982	0.524740888032539	0.0232531170492875	0.0860965552137631	0.145785279867141	0.203397279587864	0.0570971567673964	0.0714399274791953	0.371795156537522	0.0630298958801469
0.315625	0.482709614765625	0.495567882374945	0.521248328193693	0.0229761874734395	0.0889252282470528	0.144253459685468	0.193534727099586	0.052191253388008	0.0686296218705194	0.375918184055424	0.0592731347308111
0.316666666666667	0.470947363779039	0.489926850851126	0.517565988529353	0.0226987703975932	0.0918246550683509	0.142604118488785	0.183915713183244	0.0475546351189734	0.0659186001685911	0.379638686143473	0.0556667618119806
0.317708333333333	0.459248784509333	0.484311296989133	0.513672298662124	0.0224195545213435	0.0947912920264642	0.140842635531427	0.174552925167738	0.0431819627586131	0.0633019311472338	0.382911873147668	0.0522091978697442
0.31875	0.447626527555472	0.478706058854946	0.509547859082779	0.0221375467535423	0.0978205548317941	0.138974407004816	0.16545796557463	0.039067145010947	0.0607748951885184	0.385708238999133	0.0488989277242174
0.319791666666667	0.436085219339906	0.473090534814802	0.5051748855404	0.0218519332100791	0.100907058705167	0.137006630596056	0.15664119129221	0.0352033997949564	0.0583331108826461	0.388012853638447	0.0457345575741454
0.320833333333333	0.424622019083835	0.467440429340905	0.500535027995593	0.0215618487375387	0.104044949265895	0.134949815931977	0.148111490074906	0.0315833794076211	0.0559726178011438	0.389821190720575	0.0427147836223943
0.321875	0.413227659477446	0.461730449591647	0.495607629182165	0.021266198560766	0.107228052979978	0.132817661405881	0.139875982424526	0.0281993383824183	0.0536899415710786	0.391133318934047	0.0398382440106883
0.322916666666667	0.401887831890578	0.455937751817952	0.490370210336504	0.0209636259726744	0.110449695588141	0.13062544580659	0.131939719806668	0.0250432887099046	0.0514821303688174	0.391948507387366	0.0371033291088706
0.323958333333333	0.390584810462795	0.450044086120499	0.484802003273018	0.020652646511084	0.113702389164889	0.128388089861177	0.124305519268601	0.0221071034635068	0.0493467634818927	0.392262689181955	0.0345080674948373
0.325	0.379299871379792	0.444034208436431	0.478891434948356	0.0203319275191538	0.116977827675872	0.126119140510259	0.116974060563066	0.0193825765075794	0.0472819357450099	0.392069360195706	0.0320501359472841
0.326041666666667	0.368015568826916	0.437892800140764	0.472641428879234	0.0200006263677402	0.120267423088366	0.12383094324423	0.109944221439216	0.0168614584636737	0.0452862122783397	0.391361971192465	0.0297268931407179
0.327083333333333	0.356717315370971	0.431602265014898	0.46606603958137	0.0196586022171301	0.123562893790661	0.121534950254896	0.103213490009671	0.0145354841962138	0.0433585490982654	0.390136110237112	0.0275353529879224
0.328125	0.345396759537103	0.42514177318665	0.459182759088465	0.0193063627725623	0.126856441344154	0.119241444954157	0.096778330637425	0.0123963959106611	0.0414981974773789	0.388391294498083	0.0254721617503593
0.329166666666667	0.334056003120539	0.41848944626025	0.452007088218552	0.018944811944293	0.130140866284218	0.116959033545356	0.0906344875930267	0.010435960038511	0.0397046182727231	0.386132439740312	0.0235336149007705
0.330208333333333	0.322707578724455	0.411626836590872	0.444551526110934	0.018574990277763	0.133409577059003	0.114694379032327	0.0847772290969099	0.00864597772721366	0.0379773885305578	0.383370759592648	0.0217156854038398
0.33125	0.311370267432229	0.404540538102689	0.436828168760657	0.0181979385801957	0.136655907671154	0.112452210653309	0.0792015072906307	0.00701828285302055	0.0363160897380497	0.380123859786118	0.0200141542614181
0.332291666666667	0.300066578489778	0.397219417302984	0.428850167442683	0.0178146815008475	0.139872087113521	0.11023559214905	0.0739020255325236	0.00554472379306534	0.0347202353298347	0.376415075307375	0.0184248964042419
0.333333333333333	0.288823541124175	0.389653396314184	0.420629320250175	0.0174262288676775	0.143048713154492	0.108046813603145	0.0688732269086676	0.00421714194003389	0.0331892606258048	0.37227234951587	0.0169440789571134
0.334375	0.277671918677022	0.381838922929792	0.412174408724364	0.0170335193279876	0.146174988999594	0.10588888891501	0.0641092347327655	0.00302738188212543	0.0317225161643601	0.367726936263309	0.0155680599793842
0.335416666666667	0.266642307802093	0.373785806108307	0.403493246892856	0.0166373519071046	0.149239731318703	0.10376629743776	0.0596038182418123	0.0019673523777096	0.0303192195247963	0.362812051881047	0.014293176438201
0.336458333333333	0.255761991553984	0.365516065506384	0.394594238899983	0.0162383571131756	0.152232874355392	0.101684117682275	0.0553504408410606	0.00102910412214208	0.0289783666019452	0.357561507574196	0.0131157081265981
0.3375	0.245054108526039	0.3570563910087	0.385485056953248	0.0158369799966998	0.155146310472969	0.0996469455655061	0.0513423639139974	0.000204871954316393	0.0276986641324809	0.352008321927535	0.0120320076495685
0.338541666666667	0.234537910330972	0.348433330935423	0.376171671492719	0.015433459613027	0.157973365784682	0.0976588581447588	0.0475727480461852	-0	0.0264785975923167	0.346183406187944	0.0110385965466829
0.339583333333333	0.224229395961992	0.33967313486494	0.366660142877589	0.0150278545769599	0.160707932206514	0.0957237451281902	0.0440347068051015	-0	0.0253166373359686	0.340114482389226	0.0101321340013002
0.340625	0.214141930341389	0.330801975984223	0.356960355243526	0.0146201727975129	0.163343986557094	0.0938450948604698	0.0407212876404833	-0	0.0242114133094589	0.333825186436133	0.00930930931714822
0.341666666666667	0.204286605497242	0.321844857576589	0.347089092745016	0.014210538062223	0.165874830157397	0.0920254914508728	0.0376254219507452	-0	0.0231617420430577	0.327334358972105	0.00856673323241876
0.342708333333333	0.194672521070653	0.312824674062085	0.337070074764887	0.0137992197833115	0.1682920999014	0.0902665125500394	0.0347399032299022	-0	0.0221665772980737	0.320656087364202	0.00790087950897837
0.34375	0.185307382822186	0.303762703716775	0.326931462790351	0.0133865183477009	0.170585440327782	0.0885690966409176	0.0320573474125201	-0	0.0212249691844538	0.313801083643936	0.00730808329647434
0.344791666666667	0.176198387934478	0.294679877177266	0.316702922339064	0.0129726833729999	0.172742901016715	0.0869338684304723	0.0295700742072018	-0	0.0203360195280271	0.306779019806255	0.00678457089827715
0.345833333333333	0.167352651813173	0.28559742477172	0.306413315717054	0.0125579279810293	0.174751920522813	0.0853611207173832	0.0272699866833695	-0	0.0194988196942982	0.2996006047033	0.00632649760667085
0.346875	0.158776860025583	0.276536498791894	0.296089521379601	0.012142448280574	0.176600618168413	0.0838507178159632	0.0251485528940278	-0	0.0187123873050197	0.292278481724426	0.00592998999923816
0.347916666666667	0.150476505004039	0.267517623226	0.285756436950327	0.0117264428924163	0.178278034354841	0.0824020599494192	0.0231968703232986	-0	0.0179756005663889	0.284827093703966	0.00559120445271683
0.348958333333333	0.142455183154017	0.258560543234435	0.275437419580467	0.0113102294838127	0.179772992902047	0.0810139139841728	0.0214057650127436	-0	0.0172871467863362	0.277262365825253	0.00530637191899942
0.35	0.134714484428716	0.249683599513503	0.265154624284929	0.0108944259588329	0.18107290580806	0.0796841255885802	0.0197659276392885	-0	0.0166455169857872	0.269601860541731	0.00507178298041757
0.351041666666667	0.127254618660644	0.240902647229194	0.254929294688305	0.010480047809141	0.182163250939124	0.0784094647047196	0.0182680625558286	-0	0.0160490045619348	0.261865313724669	0.00488375507383122
0.352083333333333	0.120075334052665	0.232230863016373	0.244781823826574	0.0100684726415256	0.183028280464949	0.077185962520242	0.0169030064444435	-0	0.0154956695194153	0.254074967042465	0.00473866910889127
0.353125	0.113176446819011	0.223679445663818	0.234731202833569	0.00966132994873039	0.183652670995433	0.0760098075355559	0.0156618126615697	-0	0.0149833167188533	0.246255333549329	0.00463307012308144
0.354166666666667	0.106557670343747	0.215258330453056	0.224794177115758	0.00926038299220508	0.184022023206387	0.0748782514847879	0.0145358121829196	-0	0.0145095111004014	0.238432443939581	0.00456374853781125
0.355208333333333	0.100218156838219	0.206976704688356	0.214985131235921	0.00886743886859941	0.184122222484473	0.0737897877383255	0.0135166543839607	-0	0.0140716086799201	0.230632779657638	0.00452775920843124
0.35625	0.0941562201180195	0.198843096451907	0.205317105117804	0.00848428266524259	0.183940468767073	0.0727434265048159	0.012596327811536	-0	0.0136668030280749	0.222882167822527	0.00452238150092034
0.357291666666667	0.0883691743738134	0.19086486639939	0.195803116760474	0.00811263189313784	0.18346793748525	0.0717378095457641	0.0117671672270792	-0	0.0132921932191385	0.215204891719974	0.00454502939119612
0.358333333333333	0.082853179966147	0.183047907112621	0.186456823501109	0.00775412279334215	0.182701065663199	0.0707708468482247	0.0110218557618899	-0	0.0129448747032537	0.207623139925763	0.00459318040271768
0.359375	0.0776033332261158	0.175397078272575	0.177292380905502	0.00741032387824015	0.181641397794325	0.0698396764329255	0.0103534356215516	-0	0.0126220349790159	0.200156745208238	0.0046644097722811
0.360416666666667	0.0726141366840854	0.16791677999969	0.168324095174216	0.00708275203107521	0.180295486251713	0.0689406417569173	0.00975535303117861	-0	0.0123210399233414	0.192823118709126	0.00475646762730814
0.361458333333333	0.0678801912680951	0.160611269584813	0.159566360657618	0.00677287012572049	0.17867398744789	0.0680693379489395	0.00922154317027628	-0	0.0120395391048668	0.18563742276876	0.00486727096693533
0.3625	0.063396860392389	0.153484831684167	0.151033677336062	0.00648207580440013	0.176789570764099	0.0672207072231196	0.00874651431977958	-0	0.0117755872483584	0.178612887704614	0.00499482813351144
0.363541666666667	0.0591604913638559	0.146541758651929	0.142740384843531	0.00621170742479786	0.174654927631967	0.0663891809056468	0.00832538430096388	-0	0.0115277326498416	0.171760846076566	0.00513718908678305
0.364583333333333	0.0551679390557245	0.139786105889455	0.134700151979727	0.00596306350929173	0.172282188235612	0.0655691321102143	0.00795388362146049	-0	0.0112950586078897	0.16509038237133	0.00529243542081497
0.365625	0.0514158213993662	0.133221475244784	0.126925447791755	0.00573741370797018	0.169684072027373	0.0647556866015649	0.00762835609087944	-0	0.0110771770367804	0.158608193552469	0.00545866941080963
0.366666666666667	0.0479001063255463	0.1268510917826	0.119427116157629	0.0055360018168842	0.16687525932697	0.0639454171947791	0.00734573909536476	-0	0.0108741552774961	0.1523191110149	0.00563398540631475
0.367708333333333	0.0446160727470892	0.12067802772739	0.112214096805908	0.00536004739471037	0.163872685951363	0.0631364255221207	0.00710350315325645	-0	0.0106863763366338	0.146227002396385	0.00581645212808049
0.36875	0.0415583799621709	0.114705174740247	0.105293364163021	0.00521074385079422	0.160694833207637	0.0623277652388237	0.00689954876517895	0.000267873722841724	0.0105143635298691	0.140335561470299	0.00600414358361666
0.369791666666667	0.0387211308842806	0.108934975854604	0.0986700640829551	0.00508926054679666	0.157360338315749	0.0615187361525635	0.00673207287377247	0.000555254837955395	0.0103586387043581	0.134648709228488	0.00619521540435822
0.370833333333333	0.0360979333088387	0.103369297131619	0.0923476536905819	0.00499675309052025	0.153887023111308	0.0607088521513302	0.00659943826167504	0.000842826281379821	0.0102196750410517	0.12917056123801	0.00638799105273775
0.371875	0.0336819389955258	0.0980095150102136	0.0863279415742878	0.00493437059831735	0.15029210964954	0.0598983982561202	0.00650008131766971	0.0011296166260256	0.0100979148892582	0.123905081433952	0.00658102910416718
0.372916666666667	0.0314658395605928	0.0928565821494028	0.0806111331282704	0.00490324842578495	0.146592667253586	0.0590884736669664	0.00643247346837138	0.00141474093351668	0.00999377990849885	0.118855511127825	0.00677313808531817
0.373958333333333	0.0294418532443384	0.0879109620333458	0.0751959654636478	0.00490448397418617	0.142805587262061	0.0582802580051469	0.00639512378368843	0.0016973748254423	0.00990765250713896	0.114023714592472	0.00696330580327894
0.375	0.0276017416741667	0.0831724823917373	0.0700799021362676	0.00493911123743519	0.138947477293822	0.0574743535315134	0.00638660432587847	0.00197672534899748	0.00983986259575488	0.109409739457934	0.00715058087409809
0.376041666666667	0.0259368399773488	0.0786401411133624	0.0652593301715743	0.0050080943567437	0.135034737980551	0.056670575647254	0.00640557436952688	0.00225201702129214	0.00979069858842662	0.105011784474129	0.00733399313647261
0.377083333333333	0.0244380787641576	0.0743118949924279	0.0607297073674865	0.00511233776542997	0.131083718307459	0.0558679329183328	0.00645077085870193	0.0025224949757603	0.00976041137478174	0.100826499198618	0.00751252886020955
0.378125	0.0230960096835943	0.0701845270367901	0.0564856479580037	0.00525270450273714	0.127110836223246	0.0550646394568493	0.00652095899546839	0.00278745243337319	0.00974920110066145	0.0968493446311662	0.00768511723051401
0.379166666666667	0.0219008670557435	0.0662536945117966	0.0525210029428889	0.00543004871216079	0.123132578165895	0.0542581980730149	0.0066148675256963	0.00304627893079879	0.00975721987809386	0.0930748178964792	0.00785063734588407
0.380208333333333	0.0208427499586753	0.0625141580082145	0.0488289588553786	0.00564527183634623	0.119165253957896	0.0534456346115683	0.00673114247683776	0.00329849945100558	0.00978460799125459	0.0894966233337619	0.00800799117577562
0.38125	0.0199119436468649	0.058960082078325	0.045402110689357	0.00589939562774332	0.115224503123574	0.0526238091311255	0.00686834595389445	0.00354378213995227	0.00983154875765507	0.0861078973760702	0.00815623280655009
0.382291666666667	0.0190992103871868	0.0555852993037466	0.0422324928287885	0.00619361598481869	0.111324822164985	0.0517896084254337	0.00702499031344957	0.00378192283285365	0.00989830690071008	0.0829014432929648	0.00829468286799015
0.383333333333333	0.0183959010584118	0.0523835008525549	0.0393116184145842	0.00652929687352333	0.107479334933983	0.050939995146507	0.00719956530712452	0.00401282971106701	0.00998521688581809	0.0798699517221828	0.00842297611381722
0.384375	0.0177938689670283	0.0493483568205121	0.0366305879576182	0.00690789633499162	0.10369968060194	0.0500719535780991	0.00739054696881891	0.00423650842053605	0.0100926199205372	0.0770061807296667	0.00854106937217824
0.385416666666667	0.0172852421701177	0.0464735933303202	0.0341802081879346	0.00733086541758734	0.0999958983586943	0.0491824463200605	0.00759641844036711	0.00445303616188781	0.0102207887130888	0.074303005546279	0.00864923035518366
0.386458333333333	0.016862268770382	0.0437530611083658	0.0319509896381242	0.00779957990803827	0.0963764462597232	0.0482689358612566	0.0078156930584063	0.00466253000653922	0.010369872843694	0.0717533331371367	0.00874796799061636
0.3875	0.0165174649476096	0.0411808038518596	0.0299330432312038	0.00831532610972863	0.0928483983944707	0.047330444466484	0.00804689780792276	0.00486511304808077	0.0105398661643265	0.069349932360477	0.00883791464860337
0.388541666666667	0.016243982532277	0.0387511173875933	0.0281160205676539	0.00887931740986894	0.0894176464385684	0.0463678187884592	0.00828852738751986	0.00506088921613068	0.010730598450243	0.0670851735369381	0.00891972621622834
0.389583333333333	0.0160358322706114	0.0364585828782926	0.0264891466385051	0.00949270746459301	0.0860889775508814	0.0453827622489002	0.00853900828002462	0.0052499379088582	0.0109417426636104	0.0649507185937155	0.0089940222609603
0.390625	0.0158877553857334	0.034298070997845	0.025041265897534	0.010156587104675	0.0828660352821503	0.0443769259693551	0.00879667790529442	0.0054323113570137	0.0111728177454562	0.0629373143655213	0.0090613501299709
0.391666666666667	0.0157949068281985	0.0322647485985544	0.0237608663747205	0.0108719761335391	0.0797512589226139	0.0433517607909445	0.00905977210465049	0.00560802453292917	0.0114231990534833	0.0610348347104036	0.00912217168062411
0.392708333333333	0.015752595255322	0.0303541020758533	0.0226361228251697	0.0116398209116227	0.0767458826920818	0.0423086782822225	0.00932645018937656	0.00577704980142255	0.0116921577398755	0.0592325660694345	0.00917687098347986
0.39375	0.0157561674298474	0.0285619451855447	0.0216549764340768	0.0124609988309619	0.0738499768173808	0.0412491779399559	0.00959487318164512	0.0059393265307026	0.0119789105741843	0.0575195713154628	0.0092257509442184
0.394791666666667	0.0158009843885104	0.0268843658765119	0.0208052990924554	0.0133363128733019	0.0710624971321389	0.0401749587206204	0.00986327553962271	0.0060947872533855	0.0122826367455534	0.0558850058142522	0.00926900281343603
0.395833333333333	0.0158824027086849	0.0253175830898827	0.0200751992583047	0.0142664619612078	0.0683813340332537	0.039088077255734	0.0101299811988605	0.00624338785795583	0.0126024431667191	0.0543184172531802	0.00930668041704407
0.396875	0.0159957448008741	0.0238577360654672	0.019453357197335	0.0152520136739039	0.0658034212482183	0.0379911179343065	0.0103933884345724	0.00638512213029073	0.012937305297654	0.0528100679637078	0.009338721065908
0.397916666666667	0.0161363127604418	0.0225007053456973	0.0189291842101998	0.0162934168191648	0.0633250350790726	0.0368872744393625	0.0106519450426908	0.00652002197716656	0.0132860241473618	0.0513512381225316	0.0093650304152266
0.398958333333333	0.0162995054008404	0.0212420760110946	0.0184927189098761	0.0173910420965737	0.0609422269603192	0.0357802815010893	0.0109041225526222	0.00664816040700617	0.0136472167993933	0.0499344923799923	0.00938559201366713
0.4	0.0164809883583948	0.0200772484679542	0.0181343734470389	0.0185452102580067	0.0586511711483023	0.0346741968059257	0.0111484206824827	0.00676964905457266	0.0140193295018202	0.0485539279391232	0.00940054549251772
0.401041666666667	0.0166767566110842	0.0190016101960963	0.0178448529539826	0.0197562169939259	0.0564483784628426	0.033573098175748	0.0113834107648712	0.00688461547105978	0.0144006545787432	0.0472053516903648	0.00941024624760614
0.402083333333333	0.0168830320324743	0.0180106946689773	0.0176154482629596	0.0210243629385782	0.0543308514704308	0.032480795349609	0.0116077992628177	0.00699318972789486	0.0147893482291699	0.0458862753699165	0.0094153160369933
0.403125	0.0170961694135213	0.0171002853688033	0.0174384630322278	0.0223499234305394	0.0522961592727608	0.0314006619300408	0.0118204868593029	0.0070955311903684	0.0151834517625213	0.0445956955110601	0.00941662666174806
0.404166666666667	0.0173128104784404	0.0162664608905782	0.0173074510275076	0.0237330666935967	0.0503423612065166	0.0303356407858862	0.0120205863301692	0.00719186656883882	0.0155808983826022	0.0433337713008367	0.009415205529445
0.405208333333333	0.0175301761637982	0.0155056162665001	0.0172171876455843	0.0251738246968201	0.0484677919117137	0.0292883227631327	0.0122073854183615	0.00728249722982123	0.0159794802889045	0.042101519767984	0.0094121209109305
0.40625	0.0177460683827148	0.0148144623964465	0.0171634238587529	0.0266721119447684	0.046670767624377	0.0282609816482573	0.0123802971575412	0.00736777182098459	0.0163768081503001	0.0409005197839331	0.00940839291943522
0.407291666666667	0.0179585781582086	0.0141899749629206	0.0171425062634772	0.0282277094946185	0.0449492844562237	0.0272555825871937	0.0125388549105223	0.0074480402815718	0.0167703451080252	0.0397326122244319	0.00940495090421582
0.408333333333333	0.01816590591951	0.0136292947141935	0.0171509985371091	0.0298401988026077	0.0433008297364764	0.0262737869452099	0.0126827383312635	0.00752361779698154	0.0171575056535026	0.038599655690102	0.00940263191768505
0.409375	0.018366326162067	0.0131296119561517	0.0171854423923487	0.0315088645706995	0.0417223587607399	0.0253169443749421	0.0128117719884422	0.00759478200836799	0.0175357292521551	0.0375033823137581	0.00940219387785468
0.410416666666667	0.0185581349057658	0.012688079749374	0.0172423277539269	0.0332325906697873	0.0402103563638637	0.0243861256456032	0.0129259145489873	0.00766178442547477	0.0179025273865587	0.0364453657388182	0.00940431674350434
0.411458333333333	0.0187397238538724	0.0123017741875527	0.0173182232405539	0.035009808210371	0.0387609689898172	0.0234822137994765	0.0130252783901724	0.00772485732067465	0.0182555356624845	0.0354270464864633	0.00940957981965091
0.4125	0.0189098589576871	0.0119676814963416	0.0174099399461491	0.0368385380492585	0.0373702635836951	0.0226059412379549	0.0131101356751412	0.00778423284978349	0.0185925530299524	0.0344497205724594	0.00941843384833852
0.413541666666667	0.0190679266285585	0.0116826912872029	0.0175146609924777	0.0387164838202928	0.0360345209693033	0.0217578123385746	0.0131808776675597	0.00784015798060133	0.0189116030011888	0.0335144817184605	0.00943119491178881
0.414583333333333	0.0192139238118168	0.0114435804218068	0.0176300389900085	0.0406410781200989	0.0347504058371498	0.0209380171742474	0.0132379656251368	0.00789287435783592	0.0192110327319282	0.0326221495944489	0.00944805803702247
0.415625	0.0193482004391968	0.0112469948236606	0.0177542474009852	0.0426094298297788	0.0335150124694389	0.0201464471047133	0.0132818947355771	0.00794258969390698	0.0194895435977958	0.0317731931384192	0.00946911899494399
0.416666666666667	0.0194712231411488	0.0110894658363738	0.0178859695656317	0.0446182232796642	0.0323259036768369	0.0193828122313359	0.0133131480822084	0.00798946202323487	0.019746084191977	0.0309676786660007	0.00949440500632665
0.417708333333333	0.0195835740427658	0.0109674573384634	0.0180243513092012	0.0466636482388893	0.0311812487428141	0.0186467563299376	0.0133321294478441	0.00803359615794976	0.0199796690634864	0.030205276633593	0.00952389535545287
0.41875	0.0196860287247883	0.0108774052673731	0.0181689593251327	0.0487413529589319	0.0300800290618719	0.0179378574650388	0.0133391047262141	0.00807506285059436	0.020189249077464	0.0294853127623198	0.00955750362633195
0.419791666666667	0.0197795376379568	0.0108157376511564	0.0183197261264009	0.0508463642326745	0.0290220868938221	0.0172555586364429	0.0133342091227166	0.00811391372636288	0.0203737600372298	0.0288068362785189	0.00959504924143357
0.420833333333333	0.0198651485118987	0.0107788863052394	0.0184768430964617	0.0529730059000097	0.0280078546212075	0.0165991518621448	0.0133175582140939	0.00815017192306773	0.0205323715752472	0.0281686903990012	0.00963628023384336
0.421875	0.0199438855487426	0.0107633075632173	0.0186406349228852	0.0551148943885475	0.0270379052570806	0.015967822607142	0.0132894091194824	0.00818384343175645	0.0206647711011562	0.0275695658058468	0.00968094785793351
0.422916666666667	0.0200166117572487	0.0107655175755417	0.0188114479796441	0.0572649968249215	0.0261126049756438	0.015360723209815	0.0132502589429695	0.00821496200379724	0.0207712514557725	0.0270080605219523	0.00972885877866017
0.423958333333333	0.0200840096404125	0.0107821467994481	0.0189895467395339	0.0594157097142484	0.0252320149813882	0.0147771176596129	0.0132008207440258	0.00824361116946664	0.0208525204288969	0.0264827618982295	0.00977985185899604
0.425	0.0201467014727232	0.0108100310410986	0.0191750286813031	0.0615589963929212	0.0243959479032506	0.0142165791161881	0.0131419036093335	0.00826989214646464	0.0209093671182937	0.0259922882908228	0.00983373580278832
0.426041666666667	0.0202053722229907	0.0108463195283229	0.0193677757093836	0.0636866154403243	0.0236039776346646	0.0136790814231159	0.0130742898508658	0.00829387242273536	0.0209424164836517	0.025535269277741	0.00989023675091498
0.427083333333333	0.0202608338905463	0.0108885408874426	0.0195674515756517	0.0657903478256611	0.0228553621965663	0.0131648966409397	0.0129986823473741	0.00831555572489709	0.0209521027528996	0.025110329094175	0.00994895453490077
0.428125	0.0203140473992962	0.0109345911176622	0.019773532925502	0.0678620986697092	0.0221489827678267	0.012674411366076	0.0129157039863333	0.00833486714827025	0.0209388025325071	0.0247161371433	0.0100093456213119
0.429166666666667	0.0203660790492757	0.0109826586356757	0.019985347203005	0.0698939252748245	0.0214833443185849	0.0122079842080664	0.0128258966077289	0.00835164198791302	0.0209029939337896	0.0243515212076968	0.0100707608011687
0.430208333333333	0.0204180017135752	0.0110311378657526	0.0202021199062673	0.0718781124826461	0.0208566159920227	0.0117658570469579	0.0127296941473866	0.00836563007860858	0.0208453766048131	0.0240155352391569	0.0101324899567611
0.43125	0.020470816472758	0.011078577839239	0.020423029867131	0.073807151362514	0.0202666993913299	0.0113481157123358	0.0126273894601878	0.00837650638868655	0.0207669531529091	0.0237073939705114	0.0101937663237258
0.432291666666667	0.0205254201833841	0.0111236708484578	0.0206472156337379	0.0756734325834451	0.019711353669373	0.0109546988292293	0.0125191458002766	0.00838387898879877	0.0206690815918645	0.0234263239107836	0.0102537693092554
0.433333333333333	0.0205826002410634	0.0111652538692225	0.0208736937619937	0.0774689717130677	0.0191883901694078	0.0105854162904696	0.0124050764033221	0.00838732070157809	0.0205535150706024	0.0231714069621637	0.0103116602505805
0.434375	0.0206430650268077	0.0112022904454327	0.0211012585461977	0.0791855781698085	0.0186958139242708	0.0102399443915611	0.0122853471829876	0.00838642839529297	0.0204224262649413	0.0229414711479235	0.010366650566395
0.435416666666667	0.0207074539020793	0.0112338101272563	0.0213284601130362	0.0808152860659432	0.0182317880722591	0.00991780822992318	0.0121602273942025	0.00838087118483159	0.0202783821235897	0.0227350991893207	0.0104181266021689
0.436458333333333	0.0207762582124812	0.0112588370134681	0.0215536609061447	0.0823507099621196	0.0177945503117231	0.00961837936277487	0.0120300637208027	0.00837041507196812	0.0201242685021619	0.0225507136857482	0.0104658166992546
0.4375	0.0208497603055418	0.0112764009056471	0.0217751202831294	0.0837853175482659	0.0173824819793081	0.00934090412515359	0.0118952345188252	0.00835495325387959	0.019963200640095	0.0223865947278245	0.0105098935466914
0.438541666666667	0.0209281058541172	0.011285659090866	0.0219910673182898	0.0851136589843768	0.0169942626817467	0.00908454960127373	0.0117561557760635	0.00833454899768103	0.0197984480730772	0.0222408346276372	0.0105509195931926
0.439583333333333	0.0210114119444921	0.0112860401731042	0.0221997078542546	0.0863314262310808	0.0166289172523705	0.0088484398238902	0.0116133321444772	0.00830946777204658	0.0196333922044249	0.0221113541511931	0.0105896716773852
0.440625	0.0210997770442088	0.0112773326838678	0.0223991562084716	0.0874352277163475	0.0162857426681407	0.00863167346875683	0.0114673865862767	0.00828018977199332	0.0194715121614427	0.0219959979122977	0.0106269686607005
0.441666666666667	0.0211932051142981	0.0112597028310365	0.0225873470346481	0.088422105152755	0.0159641878736476	0.0084333258062288	0.0113190522559213	0.00824740414001074	0.0193163771410815	0.0218926283860897	0.0106635730749626
0.442708333333333	0.0212915141028199	0.011233635476663	0.0227619590461637	0.0892888849455965	0.0156636925658391	0.00825243469826568	0.0111691639192193	0.00821197764752001	0.0191716201257784	0.0217991594232699	0.0107001422558973
0.44375	0.021394268659222	0.0111998156386691	0.0229203769893984	0.0900317024951743	0.0153835531972938	0.00808797985455344	0.0110186504404996	0.00817489651611047	0.0190408681319692	0.021713569997458	0.010737196774288
0.444791666666667	0.0215007465129469	0.0111589952886944	0.0230597438235286	0.0906463434617815	0.0151229370611506	0.00793886576780867	0.0108685129928732	0.0081371895592297	0.0189276443327362	0.0216339928819776	0.0107751200866215
0.445833333333333	0.0216099344065945	0.0111118780994587	0.0231771125920302	0.091129700558864	0.0148810341429353	0.00780391377524418	0.0107197976613294	0.00809984935409885	0.0188352938280774	0.0215588551904537	0.0108142016867478
0.446875	0.0217205747617283	0.011059062022191	0.0232696538014967	0.0914816549027678	0.0146572276726464	0.0076818746831383	0.0105735567924801	0.00806378233383885	0.018766947190489	0.0214869469884169	0.0108546796649991
0.447916666666667	0.021831316533666	0.0110010868006504	0.0233348781378798	0.0917059583035207	0.0144511744284751	0.00757146169742033	0.0104308108239671	0.00802979602147374	0.0187254968955069	0.0214174138857958	0.0108967467123194
0.448958333333333	0.0219409705153854	0.0109385543780805	0.0233708418805483	0.0918093200560316	0.0142627430186724	0.00747139141910272	0.0102925550461075	0.0079985967311285	0.01871357705766	0.0213497751642955	0.0109405549136319
0.45	0.0220487165325405	0.0108721996152423	0.0233762707162999	0.091799636073023	0.0140918695152273	0.00738044240305714	0.0101598020811496	0.00797079016946598	0.0187335543986366	0.0212839789881353	0.0109862374689018
0.451041666666667	0.0221540733788403	0.0108028354442669	0.0233505605782861	0.0916849107093642	0.0139384619260163	0.00729753756523369	0.010033613549732	0.00794689056993555	0.0187875376153493	0.0212204206908259	0.0110339047005915
0.452083333333333	0.0222566454628329	0.0107312291766613	0.0232936984212738	0.0914730326565142	0.0138023857196038	0.00722180584222321	0.00991510352572322	0.00792732352801072	0.018877404161127	0.0211598641804675	0.011083600219807
0.453125	0.0223558680139946	0.0106580106843871	0.0232061517466772	0.0911715884661042	0.0136834649788714	0.0071525881179133	0.00980541018207829	0.00791242080966596	0.0190048318591872	0.0211033146155249	0.0111352541019312
0.454166666666667	0.0224509546151892	0.0105836464658821	0.0230887446387499	0.090787656455639	0.01358148000781	0.00708941982963729	0.00970564838448947	0.00790241602100657	0.0191713263222589	0.021051958158056	0.0111886542547554
0.455208333333333	0.0225410192788485	0.0105084496359755	0.0229425609967233	0.0903281581319546	0.013496167235078	0.00703201185148812	0.00961686824707735	0.007897441207442	0.0193782573274528	0.0210071519883436	0.0112434459037107
0.45625	0.0226251669102438	0.0104326103564008	0.0227689045262458	0.0898006550395117	0.0134272069362227	0.00698021606648968	0.00954001918072955	0.00789753457184879	0.0196269108860896	0.0209703754259799	0.0112991695750971
0.457291666666667	0.0227024431821228	0.0103562516083645	0.0225692740464094	0.0892137936283376	0.0133741866809302	0.0069339868374302	0.00947591444961743	0.0079026556677609	0.0199185279039462	0.0209431449025485	0.0113552936177013
0.458333333333333	0.0227717050739707	0.0102794703560879	0.0223452978853581	0.0885773593835383	0.0133365435362497	0.0068933475734091	0.00942521712330078	0.00791269097714031	0.0202542944181477	0.0209269230091242	0.0114111979440522
0.459375	0.0228315193858769	0.0102023321172266	0.0220986524799605	0.0879024504372256	0.0133135346290498	0.00685835518850002	0.00938845736741088	0.0079274479047004	0.0206352824334744	0.0209230267990532	0.0114661473168923
0.460416666666667	0.0228801874094983	0.0101248587154431	0.0218310257888346	0.0872013069662096	0.0133042760723761	0.00682907084966083	0.00936605331309078	0.00794664277434126	0.0210623845181983	0.0209325482665862	0.0115192911622512
0.461458333333333	0.0229159150649666	0.0100470333403778	0.021544106269109	0.0864863614970262	0.0133078018277697	0.00680554581396019	0.00935831504336501	0.00796989990434077	0.0215362841276544	0.0209562966243975	0.0115696817717235
0.4625	0.0229370412849629	0.00996880607058605	0.0212395559812285	0.0857693011546939	0.0133230877344979	0.00678782316135183	0.00936544109443264	0.00799676636235388	0.0220574502990208	0.0209947692261564	0.0116162965371238
0.463541666666667	0.0229422134133268	0.00989011078173923	0.020919001803821	0.0850608214955831	0.0133490704137929	0.0067759400535905	0.00938752012700348	0.00802671975057517	0.0226261310187585	0.0210481692631747	0.0116580431717608
0.464583333333333	0.0229304455129435	0.00981090163312472	0.0205840824345249	0.0843708772009221	0.0133847133587798	0.00676990776734089	0.00942454082593504	0.00805916673140129	0.0232423564691238	0.0211164583985418	0.0116937632755941
0.465625	0.022901114027157	0.00973118591989203	0.0202365134303956	0.0837090060999777	0.0134291107468292	0.00676968664347669	0.00947639123847166	0.00809344611161226	0.0239059657303178	0.0211993923540461	0.0117222618079349
0.466666666666667	0.0228539852117115	0.00965104601221475	0.0198781066570766	0.0830844481186283	0.0134815735712694	0.00677518939836486	0.00954283560291728	0.00812883160199011	0.0246166531856046	0.0212965147182713	0.0117423461808699
0.467708333333333	0.0227892369389088	0.00957064856417341	0.0195107381966041	0.0825060347622663	0.0135416798799313	0.00678629902548883	0.0096234947365455	0.00816453555821697	0.0253740355113879	0.0214071488725913	0.0117528877063012
0.46875	0.0227074170471471	0.00949022414379266	0.0191363179370205	0.0819819568666453	0.0136093073611075	0.00680285949356584	0.00971784858543859	0.00819973499385464	0.0261777188257827	0.0215304166072923	0.0117529202933534
0.469791666666667	0.0226094088105436	0.00941002774097678	0.0187567933536967	0.0815195073112052	0.013684622757955	0.00682464164410136	0.00982524599979135	0.00823362446101203	0.0270273225121041	0.0216652492949758	0.0117417370873871
0.470833333333333	0.02249644944476	0.00933030154306144	0.0183741556350636	0.0811249822910906	0.0137680047809782	0.00685132688882869	0.00994490173818958	0.00826546957760015	0.0279224497746647	0.0218103878199234	0.0117189758667501
0.471875	0.0223701140390645	0.00925123952613537	0.0179904059559724	0.0808038120852817	0.013859941360426	0.00688252008827335	0.0100758828093088	0.0082946444904473	0.0288626309934178	0.0219644150648799	0.0116846927370835
0.472916666666667	0.0222322070611145	0.00917298163298114	0.0176074929624867	0.0805607724372073	0.013960942067217	0.00691777576523741	0.0102171041681947	0.0083206624855415	0.0298472738710256	0.0221258066564618	0.0116393727902907
0.473958333333333	0.0220846405004495	0.00909565665440396	0.0172272769129521	0.080400132315318	0.0140714722419198	0.00695664369923115	0.0103673407571401	0.00834319811279269	0.0308756536462676	0.0222929515575549	0.011583857948548
0.475	0.0219293623965372	0.00901941917990631	0.0168515359702864	0.080325628248223	0.0141919175739902	0.00699871906714461	0.0105252403847775	0.00836208835473969	0.0319469479972271	0.0224641433607119	0.0115192290782704
0.476041666666667	0.0217682893001333	0.00894443491605091	0.0164819583837419	0.0803403370782699	0.014322611957065	0.00704364133697466	0.0106893279435858	0.00837732138059328	0.0330602802118269	0.0226375665000117	0.0114466861619417
0.477083333333333	0.0216032382511489	0.00887082814090283	0.016120105132869	0.0804466361376817	0.0144639359110111	0.00709104631723857	0.0108580220715482	0.00838902799083782	0.0342147421239408	0.0228113164762776	0.0113674812781238
0.478125	0.0214359403647869	0.00879863926723479	0.0157674120805208	0.0806461409512002	0.0146164097108802	0.00714053934113594	0.0110296937397552	0.00839747214444375	0.0354094040440861	0.0229834869028634	0.0112829345268635
0.479166666666667	0.0212681226510776	0.0087278341661919	0.0154252580960955	0.080939482583178	0.0147807009937971	0.00719172158523177	0.0112027551125555	0.00840304089557041	0.0366432901072755	0.0231522931637938	0.0111944763422181
0.480208333333333	0.0211015598914144	0.00865833673874664	0.0150950275529447	0.0813261385708353	0.0149575541369738	0.0072442483452627	0.0113757279807361	0.00840623930981233	0.0379152762711714	0.0233161724641393	0.0111036324251185
0.48125	0.0209380802587648	0.00859003221041917	0.0147781182172823	0.0818044969692327	0.0151476924385179	0.00729786409365891	0.0115472651405264	0.00840767098201333	0.0392239354573897	0.0234737997547675	0.0110119447928582
0.482291666666667	0.0207795360519121	0.00852273813150255	0.0144759162380053	0.0823719938325417	0.0153517426642883	0.0073523835270719	0.011716151830335	0.00840799923012619	0.0405673884800792	0.0236240280636915	0.0109208821371303
0.483333333333333	0.0206277212798086	0.00845617250991411	0.0141897427974628	0.0830251192848007	0.0155702045640071	0.00740765819162163	0.0118813240600211	0.00840791357736321	0.0419432326486491	0.023765856168215	0.0108317751269108
0.484375	0.02048428298713	0.00838995300389429	0.0139207871821482	0.0837593550665837	0.0158034305552791	0.00746355668297717	0.0120418915904179	0.00840809986262626	0.0433486521735045	0.0238984387829099	0.0107457936078537
0.485416666666667	0.0203507142498805	0.0083236279136262	0.0136700817064578	0.0845692745323723	0.016051602850809	0.00751994363729044	0.0121971226384981	0.00840920871690095	0.0447807027745259	0.0240210600369533	0.010663967961478
0.486458333333333	0.0202284302137003	0.00825671927950691	0.0134385146385624	0.0854489739538547	0.0163147610553833	0.00757666511608391	0.0123463928773974	0.00841183684348857	0.0462365739984734	0.0241330952843025	0.0105872201211508
0.4875	0.0201188501034468	0.0081887759947177	0.0132268268448262	0.0863928520178421	0.0165928669956241	0.00763356437382179	0.0124891534443986	0.00841651220691183	0.0477136596852502	0.0242340429789153	0.0105163876210981
0.488541666666667	0.02002343686121	0.00811942784117544	0.013035585006334	0.0873963877584739	0.016885820301823	0.00769051921000186	0.0126249568222142	0.0084236745654818	0.0492094619761398	0.0243236235969088	0.0104522529837076
0.489583333333333	0.0199437016992057	0.00804842907220064	0.0128651646413026	0.0884561793646529	0.0171934218270187	0.00774745172001049	0.0127535196490209	0.00843367371074849	0.0507214660708033	0.024401882323447	0.0103955572620599
0.490625	0.0198811922453838	0.00797569701678258	0.0127157552397708	0.0895690144274836	0.0175153429382716	0.00780428845002151	0.0128747713468805	0.00844678906384602	0.0522472383548904	0.0244692217741938	0.0103469859443917
0.491666666666667	0.0198374659428654	0.00790134115999629	0.0125873771837261	0.0907308295732686	0.0178511248621437	0.00786092455169634	0.0129888604532105	0.00846323872852144	0.0537849753625193	0.0245263543135752	0.0103071568588385
0.492708333333333	0.0198140486638706	0.00782565810609887	0.012479897531369	0.091936359357686	0.0182002104930909	0.00791722753750164	0.0130961247870874	0.00848316350206549	0.0553341760057245	0.0245742713761956	0.0102766178740949
0.49375	0.0198123831187842	0.00774908149731749	0.0123930276127548	0.0931793714903105	0.0185619819925683	0.00797304703911555	0.0131970392500222	0.00850660456941323	0.056895714055299	0.0246142949732431	0.0102558327970452
0.494791666666667	0.0198337686148404	0.00767210692547354	0.0123263058710123	0.094453429547166	0.0189357850106122	0.00802821057148704	0.0132921397278713	0.00853348867197938	0.0584711685515958	0.0246481175221226	0.0102451535647951
0.495833333333333	0.0198793028456335	0.00759522141503085	0.0122790843494747	0.0957533363838827	0.0193209789275219	0.00808252011058712	0.0133819358695436	0.00856362170712488	0.0600620951273799	0.0246777309240917	0.0102448064267739
0.496875	0.0199498387039753	0.00751887296797175	0.012250525808326	0.0970766732530207	0.0197169978142195	0.00813576868584991	0.0134668571983212	0.00859668879894474	0.0616698096556394	0.0247052809152135	0.0102549026823067
0.497916666666667	0.0200459523310363	0.00744350019501607	0.0122396178181073	0.0984245280019913	0.0201233119970807	0.00818778778086949	0.0135472422519414	0.00863226124973751	0.0632954959885365	0.0247329115975639	0.0102754488067804
0.498958333333333	0.0201679108376249	0.00736958651984844	0.0122451956683221	0.0998010408332884	0.0205392895115336	0.00823850594431075	0.0136233354779492	0.00866983932378142	0.0649403402308278	0.0247626554116551	0.0103063417216489
0.5	0.02031564734534	0.00729768887229231	0.0122659550116084	0.10121197220803	0.0209640887293991	0.00828798782111183	0.0136952780860804	0.00870895019197971	0.0666056997583005	0.0247963971240504	0.0103473578958711
0.501041666666667	0.0204887554752344	0.00722842521360106	0.0123004510219083	0.102663005296243	0.0213966334295902	0.00833642841585029	0.0137630933658202	0.00874924481859433	0.0682930950967786	0.0248358746482878	0.0103981473862626
0.502083333333333	0.020686494143427	0.00716242418627374	0.0123470907603563	0.104158577639957	0.0218356634525015	0.00838408841904325	0.0138266633913578	0.008790525820625	0.0700038645834594	0.0248827279305455	0.0104582474807394
0.503125	0.0209078032965791	0.00710026117987858	0.0124041218826024	0.105701442461242	0.0222798505397912	0.00843120743536371	0.0138857042626709	0.00883270207257776	0.0717389049268917	0.0249386107328201	0.010527117550392
0.504166666666667	0.0211513410973324	0.00704242307308286	0.0124696365191093	0.1072926390499	0.0227278779026341	0.0084779546420609	0.0139397547756072	0.00887569798791293	0.0734988282059729	0.0250052626760821	0.010604162767564
0.505208333333333	0.0214155354340038	0.00698931033219341	0.0125416387452059	0.108931755628954	0.023178424987061	0.00852443391544623	0.0139882164879819	0.00891937524660378	0.0752843212593188	0.0250844886728878	0.0106887213046945
0.50625	0.0216986640851315	0.00694124499777253	0.0126181620402902	0.110617738269431	0.0236301315424993	0.00857071623349062	0.01403047017801	0.00896354737118471	0.0770963211968715	0.0251780955062108	0.0107800456559338
0.507291666666667	0.0219989811275381	0.00689846823884836	0.0126973432742787	0.112350147729872	0.0240815616491544	0.00861686631540867	0.0140660163088143	0.00900806977026866	0.0789358613830574	0.0252877981872246	0.0108773157645508
0.508333333333333	0.022314836401933	0.00686114368330334	0.0127774294618158	0.114130126709061	0.0245311120851131	0.00866296074270369	0.0140945550922411	0.00905288975365931	0.0808039175274672	0.0254151331973458	0.010979684630783
0.509375	0.0226447388982129	0.0068293923438821	0.0128567955667166	0.115960581279041	0.0249769404857516	0.00870910870366652	0.0141159725455196	0.009098013198064	0.0827013770037803	0.0255614707463546	0.0110863414435905
0.510416666666667	0.0229873977435811	0.00680337387723564	0.0129340147934637	0.117845941595261	0.0254171454469256	0.00875547273859761	0.0141302443749544	0.0091434370918807	0.0846287972187065	0.0257281441939855	0.0111965538828431
0.511458333333333	0.023341760366871	0.00678336302350248	0.0130079207516697	0.119791922222802	0.025850240284131	0.00880228588773554	0.0141372980108947	0.00918908671800136	0.0865861440401506	0.025916608312034	0.0113096586387951
0.5125	0.0237070274633326	0.00676973165666395	0.0130776112294576	0.121805025618784	0.0262755881458856	0.00884986443938558	0.0141369190495187	0.00923478011506611	0.0885728951395726	0.0261285215259587	0.0114250400775299
0.513541666666667	0.0240826796582241	0.00676285452887122	0.0131424372268017	0.123891586166388	0.0266935049128435	0.00889860090015894	0.0141287517539436	0.00928024043796625	0.0905882217958078	0.0263657141053276	0.0115421460633099
0.514583333333333	0.0244685422408668	0.00676303605550209	0.01320202903844	0.126057000912234	0.0271050814589758	0.00894891780583274	0.0141123381641179	0.00932514274376746	0.0926308772281016	0.0266300488724512	0.011660503037645
0.515625	0.0248647927209446	0.00677049620522337	0.0132563386956597	0.128305910306069	0.0275119221792097	0.00900119568443165	0.0140871411891085	0.00936915485743686	0.0946988319412277	0.0269232330240812	0.0117796845466579
0.516666666666667	0.0252718134114911	0.00678539768789473	0.0133056603156792	0.130642986268808	0.0279159550990203	0.00905571870946564	0.0140525750739161	0.00941194804364393	0.096788867216892	0.0272467136365419	0.0118992784451926
0.517708333333333	0.0256899540347254	0.00680786937254404	0.0133506143072919	0.133073223613247	0.0283193152048838	0.00911267493700701	0.014008090727327	0.00945319259061297	0.0988963009911232	0.0276017247704756	0.0120189062643095
0.51875	0.0261193462303558	0.0068379882644116	0.0133920761938257	0.135601358277356	0.0287241693787049	0.00917221591755573	0.0139533128488106	0.0094925747538618	0.101014896077299	0.0279893876759897	0.0121382781450119
0.519791666666667	0.0265598206198482	0.00687575115818848	0.0134310633530802	0.138231134115293	0.0291325242555137	0.00923453677879734	0.0138881629180775	0.0095298413053875	0.103136949527026	0.0284107234978739	0.012257231635286
0.520833333333333	0.0270109232943486	0.00692108108054887	0.0134686233033749	0.14096516041811	0.0295461700155788	0.00929992923912598	0.013812911320417	0.00956483984773292	0.105253652428145	0.0288666067977648	0.0123757313875456
0.521875	0.0274720271314809	0.00697384297848739	0.0135057397949342	0.143805216926357	0.0299666825598993	0.00936878806024023	0.0137281693422522	0.00959753815772138	0.107355743041357	0.0293577542372987	0.0124938451815099
0.522916666666667	0.0279424340680851	0.0070338288866769	0.0135432671776027	0.146752282074796	0.0303953646279372	0.00944157515586982	0.0136348721399779	0.00962803602508172	0.109434150613912	0.0298846799017441	0.0126116859086612
0.523958333333333	0.0284213640862196	0.0071007352231028	0.0135818938951064	0.149806092849852	0.0308331956374649	0.00951877808313193	0.0135342608551125	0.00965657417367138	0.111480271440757	0.0304475792835728	0.0127293160997916
0.525	0.0289079134135713	0.0071741681812693	0.0136221302286316	0.152964782452082	0.0312808298328305	0.0096008845763117	0.0134278081512004	0.00968352286119141	0.113485874461073	0.031046257710476	0.0128466712826441
0.526041666666667	0.0294010533944755	0.00725366453041887	0.0136643287402678	0.156224934735031	0.0317386092820743	0.00968834485279218	0.0133170897064118	0.00970934687833007	0.115442823720029	0.0316801552183861	0.0129635259951699
0.527083333333333	0.0298995803872338	0.00733870158929723	0.0137087178629679	0.159581928251941	0.0322066123274605	0.00978152516121755	0.0132036931284505	0.00973458535132532	0.117342680902852	0.0323483892136631	0.0130794869440919
0.528125	0.0304019874297713	0.00742869962766863	0.0137554216896288	0.163030226959112	0.0326846927829226	0.00988068070323242	0.0130892031071761	0.00975987785201403	0.119176214821332	0.0330497389627144	0.0131940268210036
0.529166666666667	0.0309063443087173	0.0075230222899526	0.0138044643427531	0.166563270735282	0.0331724311179762	0.00998593717209546	0.0129752116645926	0.00978599938233557	0.120933067861907	0.0337825983411931	0.0133065614600113
0.530208333333333	0.031410246800596	0.00762097357789723	0.0138557669105161	0.170173080990987	0.0336690590019073	0.0100972757811217	0.012863294690126	0.00981384217534961	0.122601899126758	0.0345449263639477	0.0134165608178125
0.53125	0.0319108522772187	0.00772180796459745	0.0139091628231704	0.173849887533232	0.0341734397263053	0.0102145432749796	0.0127549450103825	0.00984433444864081	0.124171079707465	0.0353341999181604	0.0135236900191048
0.532291666666667	0.032404992723037	0.00782475819619481	0.0139644227958772	0.177581882201982	0.0346840606467097	0.0103374884030797	0.0126515059940185	0.00987834566531485	0.125629964548745	0.0361474795636058	0.0136279407767547
0.533333333333333	0.0328893319018444	0.00792905392965051	0.0140212479311718	0.181355155174138	0.0351989938051353	0.0104657899406442	0.0125541445917917	0.0099166386905896	0.126970564897547	0.036981635763674	0.0137297027883135
0.534375	0.0333605417048715	0.0080339234906638	0.0140792679694703	0.185153729233803	0.0357159057331123	0.0105990500319772	0.0124638533665823	0.00995987637842941	0.128188580584412	0.0378335490978763	0.0138297522701752
0.535416666666667	0.0338154854730481	0.00813859925252928	0.0141380861075966	0.188959657836347	0.0362322041986942	0.0107367710320494	0.0123814572590027	0.0100086451512584	0.129282653257298	0.0387001274362999	0.0139291421971932
0.536458333333333	0.0342513820012632	0.00824233210362502	0.0141973097387172	0.192753069255588	0.0367452815979501	0.0108783474588658	0.0123076202145754	0.0100634600917301	0.130252406205821	0.0395781712043487	0.0140290075385188
0.5375	0.0346659001190028	0.00834440455191825	0.0142565138693644	0.196511808528455	0.037252687913167	0.0110230874674606	0.0122428601677479	0.0101247357586052	0.131097208667522	0.0404641629824689	0.0141303731940917
0.538541666666667	0.0350571149976528	0.00844412882833156	0.0143151808652789	0.200211018075331	0.0377521120289497	0.0111702546519889	0.0121875665592682	0.0101927464006144	0.131816494615321	0.0413540745086822	0.0142340606926105
0.539583333333333	0.0354233372688623	0.00854083136257856	0.0143726941914141	0.203823308027087	0.038241255746623	0.0113191065847812	0.0121419964105104	0.0102676130402251	0.132410638006416	0.0422432775532735	0.0143407113242772
0.540625	0.035762962973654	0.00863386051545375	0.0144284009396275	0.207319570850136	0.0387177451379751	0.0114689157091581	0.0121062561698971	0.0103493193311244	0.132881343883791	0.0431265229390482	0.0144509007827834
0.541666666666667	0.0360744047583073	0.00872263487733725	0.0144816810331118	0.210670622403728	0.0391791164693866	0.0116189698082398	0.0120802994907532	0.0104377377163673	0.133231404479207	0.0439979291749579	0.0145652919547941
0.542708333333333	0.0363560337583862	0.00880670437842141	0.0145320002013689	0.213849501619381	0.0396227870415578	0.0117685442925404	0.0120639430387368	0.0105326642723431	0.133464079462129	0.0448510493679041	0.0146847207529392
0.54375	0.0366061628271543	0.00888580283315691	0.014578999987964	0.21683307241782	0.0400459254559728	0.0119168407666334	0.0120568728449124	0.01063387414456	0.13358242008127	0.045679116423205	0.0148101452606124
0.544791666666667	0.0368230634915812	0.00895987052714761	0.0146225870694546	0.219602135122907	0.0404453726301391	0.0120629234276485	0.0120586256849215	0.0107411775744021	0.133588695818268	0.0464754434784522	0.0149424995428778
0.545833333333333	0.0370048911449451	0.0090290131572409	0.0146628888938487	0.222140495196537	0.0408178792818613	0.0122057007493955	0.0120685828161523	0.0108544285516224	0.13348390631309	0.0472338514396495	0.0150825671566334
0.546875	0.0371496255193832	0.00909340197122618	0.0147000811035922	0.224433245897372	0.0411606549434286	0.0123439568699053	0.0120860171084491	0.0109734798354058	0.133267536501781	0.0479490222396891	0.0152309640391629
0.547916666666667	0.0372552633983557	0.00915318032207372	0.0147342611590553	0.226465086383822	0.0414718867458475	0.0124764144599914	0.0121101703152007	0.0110981175242653	0.132937906769949	0.0486167468687674	0.0153881990708614
0.548958333333333	0.0373201949959217	0.00920843233356113	0.0147654600486404	0.228220655916986	0.0417509198412901	0.0126018227500423	0.012140323750665	0.0112280192073394	0.132493085253922	0.0492340583692982	0.0155547393024547
0.55	0.0373435017463655	0.00925920161035927	0.0147936891339104	0.229686743359931	0.0419981255297895	0.0127190370931876	0.0121758724845552	0.0113627868994776	0.131931739486782	0.0497992641668062	0.0157310584125555
0.551041666666667	0.0373250333773523	0.00930551692027817	0.0148189181321592	0.230853358227156	0.0422146372413081	0.0128270518641979	0.0122164076060764	0.0115020369743608	0.131253233920447	0.0503119295197564	0.015917619261469
0.552083333333333	0.0372652544227932	0.00934739416984386	0.0148409984290613	0.23171280286465	0.0424020200081551	0.0129250211057734	0.0122617620928618	0.0116454525375057	0.13045691653001	0.0507728181781541	0.0161147749564466
0.553125	0.0371649315987802	0.00938481193394552	0.0148595840820628	0.232259648285442	0.0425618619430001	0.0130123145353214	0.0123119778605011	0.0117927467286118	0.129541650307566	0.0511837382494276	0.0163226939605617
0.554166666666667	0.0370247781952447	0.00941767687624185	0.0148740954950931	0.232493036205102	0.0426954157331531	0.0130885913360445	0.0123672195600645	0.0119435753677307	0.128506630589174	0.0515473226863627	0.016541370779052
0.555208333333333	0.0368451967901565	0.00944579403738784	0.0148837445494182	0.232418629635824	0.0428035167195732	0.0131538393522569	0.0124277072027507	0.0120974721538807	0.127352876363407	0.0518668645926215	0.0167706511024909
0.55625	0.036626288172062	0.00946885087457777	0.0148875836159156	0.232047559232132	0.0428867643097255	0.0132083304986765	0.0124936819138518	0.0122538379895827	0.126083876912351	0.0521462323483168	0.0170102153254735
0.557291666666667	0.0363681338578793	0.00948641225785207	0.0148845463791081	0.231393143677045	0.0429457251132724	0.0132524971831184	0.0125653496705366	0.012411971349959	0.124704807600342	0.0523897393285377	0.0172595793346097
0.558333333333333	0.0360711084762767	0.00949794064158974	0.0148735213179965	0.230467797567493	0.0429809882859532	0.0132868019515489	0.0126427929351989	0.012571124230277	0.123221290858205	0.0526019175197357	0.0175181614375554
0.559375	0.0357360358851326	0.00950288017557715	0.0148534781094428	0.229281451292477	0.0429930783887888	0.0133116507877437	0.012725911457062	0.0127305521242112	0.121638993176346	0.0527873206939518	0.0177853330703873
0.560416666666667	0.0353642932735929	0.00950079823717239	0.014823602446956	0.227841665325422	0.0429823205602354	0.013327351037153	0.0128144185570395	0.0128895301520852	0.119963846454608	0.0529504745453687	0.0180603775511911
0.561458333333333	0.0349580214205031	0.00949151736364594	0.0147834250999339	0.226154854071536	0.0429487073647499	0.0133341142482079	0.0129078636926077	0.0130473481648398	0.118201835277712	0.0530959150819957	0.018342408032907
0.5625	0.0345203551771877	0.00947516992314582	0.0147329378400091	0.224227321128226	0.0428918274110439	0.0133321052958278	0.0130056727476706	0.013203306178873	0.116358412919129	0.0532281063410749	0.0186303280717879
0.563541666666667	0.0340554632308191	0.0094521582236252	0.0146726407804018	0.222065736089037	0.0428109668064228	0.013321527037814	0.0131071882361688	0.0133567157447173	0.114438474850475	0.0533511693918057	0.0189228669813036
0.564583333333333	0.0335683043914842	0.00942305374862037	0.0146034686134406	0.219677869349324	0.0427053361760789	0.0133027007369111	0.0132116623387154	0.0135069115333424	0.112447016278458	0.0534685923191659	0.0192186406346167
0.565625	0.0330641584935055	0.0093884781394747	0.0145266068184371	0.21707321701083	0.0425742345832609	0.0132760818515993	0.0133182338298401	0.0136532718358443	0.110389591345706	0.0535830460569636	0.0195161627092009
0.566666666666667	0.0325481417447261	0.0093490124607634	0.0144432873085695	0.214262392534245	0.0424170770079995	0.0132421945651837	0.0134259697387818	0.0137952289446947	0.108272015569354	0.0536963142668235	0.0198138157077296
0.567708333333333	0.0320249527258124	0.00930515720892936	0.0143546574307416	0.211256029751662	0.0422333595736263	0.0132015481866173	0.0135339679286586	0.0139322569507134	0.106099897377628	0.053809346787673	0.0201098366692196
0.56875	0.0314988539773053	0.00925731157959329	0.0142617481907207	0.208064806985495	0.0420226558773268	0.0131546224243867	0.0136414542224177	0.0140638468142115	0.103878847791949	0.0539224368814324	0.0204023426861793
0.569791666666667	0.0309736873054931	0.00920576293609498	0.0141655158035669	0.20470042778994	0.0417847020441166	0.0131019324202445	0.0137478351211937	0.0141894772599226	0.10161510505227	0.0540354571025613	0.0206893893161502
